Record,Total flat segments,Total flat segments > 100ms,Average duration (ms),Longest flat segment (ms),Shortest flat segment (ms)
0,8,25.0,-0.08
37,40,11.11111111111111,-0.05
58,61,11.11111111111111,-0.05
158,161,11.11111111111111,-0.18
194,197,11.11111111111111,-0.08
211,215,13.888888888888888,-0.035
256,259,11.11111111111111,0.03
292,295,11.11111111111111,0.035
319,322,11.11111111111111,0.21
334,337,11.11111111111111,0.04
344,347,11.11111111111111,-0.02
387,390,11.11111111111111,-0.12
391,394,11.11111111111111,-0.125
404,407,11.11111111111111,-0.12
423,426,11.11111111111111,-0.095
467,470,11.11111111111111,0.07
488,491,11.11111111111111,-0.005
505,509,13.888888888888888,0.025
519,522,11.11111111111111,0.035
589,592,11.11111111111111,-0.07
638,641,11.11111111111111,-0.185
658,661,11.11111111111111,-0.125
662,665,11.11111111111111,-0.135
744,747,11.11111111111111,-0.015
815,819,13.888888888888888,-0.1
878,882,13.888888888888888,-0.18
886,889,11.11111111111111,-0.18
893,896,11.11111111111111,-0.17
993,996,11.11111111111111,-0.035
1037,1040,11.11111111111111,0.095
1065,1068,11.11111111111111,-0.125
1108,1111,11.11111111111111,-0.2
1112,1115,11.11111111111111,-0.185
1126,1129,11.11111111111111,-0.155
1158,1161,11.11111111111111,-0.11
1205,1208,11.11111111111111,-0.03
1235,1238,11.11111111111111,0.0
1252,1255,11.11111111111111,-0.02
1406,1409,11.11111111111111,-0.085
1427,1430,11.11111111111111,-0.025
1444,1447,11.11111111111111,-0.09
1534,1537,11.11111111111111,-0.13
1585,1588,11.11111111111111,-0.225
1639,1642,11.11111111111111,-0.11
1682,1687,16.666666666666668,-0.05
1691,1694,11.11111111111111,-0.035
1724,1727,11.11111111111111,-0.05
1773,1776,11.11111111111111,-0.095
1849,1852,11.11111111111111,-0.185
1865,1868,11.11111111111111,-0.15
1871,1874,11.11111111111111,-0.11
1875,1879,13.888888888888888,-0.125
1919,1924,16.666666666666668,-0.105
2017,2020,11.11111111111111,-0.215
2088,2091,11.11111111111111,-0.305
2111,2114,11.11111111111111,-0.25
2126,2129,11.11111111111111,-0.215
2175,2178,11.11111111111111,-0.19
2185,2188,11.11111111111111,-0.18
2208,2211,11.11111111111111,-0.175
2321,2324,11.11111111111111,-0.37
2339,2342,11.11111111111111,-0.33
2355,2358,11.11111111111111,-0.285
2363,2366,11.11111111111111,-0.235
2395,2398,11.11111111111111,-0.17
2445,2448,11.11111111111111,-0.19
2483,2486,11.11111111111111,-0.01
2493,2496,11.11111111111111,-0.16
2541,2544,11.11111111111111,-0.24
2546,2550,13.888888888888888,-0.32
2555,2558,11.11111111111111,-0.325
2594,2598,13.888888888888888,-0.215
2607,2610,11.11111111111111,-0.19
2650,2653,11.11111111111111,-0.1
2663,2666,11.11111111111111,-0.085
2689,2692,11.11111111111111,-0.1
2744,2749,16.666666666666668,-0.195
2817,2820,11.11111111111111,-0.285
2929,2933,13.888888888888888,-0.18
2971,2974,11.11111111111111,-0.32
3017,3020,11.11111111111111,-0.43
3052,3059,22.22222222222222,-0.385
3064,3067,11.11111111111111,-0.355
3069,3072,11.11111111111111,-0.335
3083,3086,11.11111111111111,-0.305
3115,3120,16.666666666666668,-0.295
3278,3281,11.11111111111111,-0.435
3284,3287,11.11111111111111,-0.435
3308,3311,11.11111111111111,-0.34
3318,3321,11.11111111111111,-0.36
3356,3360,13.888888888888888,-0.325
3519,3522,11.11111111111111,-0.385
3543,3547,13.888888888888888,-0.3
3660,3663,11.11111111111111,-0.065
3727,3730,11.11111111111111,-0.435
3773,3776,11.11111111111111,-0.39
3794,3797,11.11111111111111,-0.36
3813,3816,11.11111111111111,-0.32
3907,3910,11.11111111111111,-0.415
4002,4005,11.11111111111111,-0.495
4041,4045,13.888888888888888,-0.395
4077,4080,11.11111111111111,-0.42
4106,4109,11.11111111111111,-0.37
4137,4142,16.666666666666668,-0.47
4150,4153,11.11111111111111,-0.495
4211,4214,11.11111111111111,-0.52
4215,4218,11.11111111111111,-0.525
4224,4227,11.11111111111111,-0.49
4294,4297,11.11111111111111,-0.355
4302,4305,11.11111111111111,-0.36
4440,4443,11.11111111111111,-0.435
4523,4526,11.11111111111111,-0.28
4536,4541,16.666666666666668,-0.27
4560,4563,11.11111111111111,-0.265
4583,4586,11.11111111111111,-0.23
4668,4671,11.11111111111111,-0.46
4720,4723,11.11111111111111,-0.38
4727,4730,11.11111111111111,-0.355
4781,4784,11.11111111111111,-0.35
4813,4816,11.11111111111111,-0.3
4857,4860,11.11111111111111,-0.405
4903,4906,11.11111111111111,-0.52
4918,4921,11.11111111111111,-0.515
4957,4960,11.11111111111111,-0.38
4967,4971,13.888888888888888,-0.375
4996,4999,11.11111111111111,-0.345
5002,5005,11.11111111111111,-0.33
5015,5018,11.11111111111111,-0.32
5128,5131,11.11111111111111,-0.48
5149,5153,13.888888888888888,-0.435
5256,5259,11.11111111111111,-0.29
5486,5489,11.11111111111111,-0.28
5501,5505,13.888888888888888,-0.29
5652,5655,11.11111111111111,-0.325
5669,5673,13.888888888888888,-0.285
5689,5692,11.11111111111111,-0.275
5704,5707,11.11111111111111,-0.29
5723,5727,13.888888888888888,-0.285
5759,5762,11.11111111111111,-0.115
5846,5849,11.11111111111111,-0.355
5906,5909,11.11111111111111,-0.135
5912,5915,11.11111111111111,-0.17
5919,5922,11.11111111111111,-0.165
6017,6020,11.11111111111111,-0.195
6103,6106,11.11111111111111,-0.195
6111,6114,11.11111111111111,-0.155
6208,6211,11.11111111111111,-0.085
6217,6220,11.11111111111111,0.015
6297,6301,13.888888888888888,-0.33
6323,6326,11.11111111111111,-0.29
6356,6359,11.11111111111111,-0.245
6413,6416,11.11111111111111,-0.185
6423,6426,11.11111111111111,-0.195
6438,6442,13.888888888888888,-0.205
6534,6537,11.11111111111111,-0.395
6545,6549,13.888888888888888,-0.395
6556,6559,11.11111111111111,-0.38
6577,6580,11.11111111111111,-0.295
6582,6585,11.11111111111111,-0.305
6601,6604,11.11111111111111,-0.225
6650,6653,11.11111111111111,-0.22
6708,6711,11.11111111111111,-0.295
6773,6776,11.11111111111111,-0.425
6783,6786,11.11111111111111,-0.41
6807,6813,19.444444444444446,-0.35
6840,6844,13.888888888888888,-0.265
6913,6916,11.11111111111111,-0.245
6959,6962,11.11111111111111,-0.42
7010,7013,11.11111111111111,-0.45
7040,7043,11.11111111111111,-0.415
7058,7061,11.11111111111111,-0.33
7087,7092,16.666666666666668,-0.275
7102,7105,11.11111111111111,-0.29
7117,7120,11.11111111111111,-0.27
7234,7237,11.11111111111111,-0.385
7313,7316,11.11111111111111,-0.135
7325,7328,11.11111111111111,-0.145
7351,7354,11.11111111111111,-0.12
7423,7426,11.11111111111111,-0.175
7485,7488,11.11111111111111,-0.24
7518,7521,11.11111111111111,-0.13
7593,7596,11.11111111111111,-0.075
7611,7614,11.11111111111111,-0.055
7700,7703,11.11111111111111,-0.265
7720,7723,11.11111111111111,-0.25
7776,7779,11.11111111111111,-0.09
7795,7798,11.11111111111111,-0.115
7863,7866,11.11111111111111,0.09
7881,7884,11.11111111111111,-0.145
7998,8002,13.888888888888888,-0.125
8012,8016,13.888888888888888,-0.08
8054,8057,11.11111111111111,-0.05
8069,8072,11.11111111111111,-0.085
8093,8096,11.11111111111111,0.11
8100,8103,11.11111111111111,0.075
8155,8158,11.11111111111111,-0.11
8163,8166,11.11111111111111,-0.21
8230,8234,13.888888888888888,-0.07
8238,8242,13.888888888888888,-0.05
8266,8269,11.11111111111111,-0.02
8271,8274,11.11111111111111,-0.01
8276,8279,11.11111111111111,-0.03
8293,8296,11.11111111111111,-0.01
8352,8355,11.11111111111111,-0.095
8409,8412,11.11111111111111,-0.195
8428,8431,11.11111111111111,-0.14
8564,8567,11.11111111111111,0.055
8595,8598,11.11111111111111,-0.02
8666,8669,11.11111111111111,-0.11
8702,8706,13.888888888888888,0.01
8723,8727,13.888888888888888,0.085
8760,8763,11.11111111111111,0.065
8766,8769,11.11111111111111,0.075
8929,8932,11.11111111111111,0.085
8941,8944,11.11111111111111,0.08
8965,8969,13.888888888888888,0.13
8980,8983,11.11111111111111,0.09
8987,8990,11.11111111111111,0.1
9029,9033,13.888888888888888,0.175
9107,9110,11.11111111111111,-0.13
9166,9169,11.11111111111111,-0.055
9244,9248,13.888888888888888,-0.015
9409,9412,11.11111111111111,-0.15
9457,9460,11.11111111111111,-0.12
9475,9478,11.11111111111111,-0.11
9481,9484,11.11111111111111,-0.115
9491,9494,11.11111111111111,-0.12
9510,9513,11.11111111111111,-0.06
9525,9528,11.11111111111111,0.0
9540,9543,11.11111111111111,-0.185
9590,9593,11.11111111111111,-0.29
9650,9654,13.888888888888888,-0.2
9668,9672,13.888888888888888,-0.15
9683,9686,11.11111111111111,-0.185
9687,9690,11.11111111111111,-0.16
9698,9701,11.11111111111111,-0.17
9724,9727,11.11111111111111,-0.16
9728,9731,11.11111111111111,-0.175
9758,9761,11.11111111111111,-0.01
9834,9837,11.11111111111111,-0.34
9867,9870,11.11111111111111,-0.295
9911,9915,13.888888888888888,-0.19
9928,9931,11.11111111111111,-0.205
9959,9962,11.11111111111111,-0.22
9968,9971,11.11111111111111,-0.22
9978,9981,11.11111111111111,-0.14
10012,10015,11.11111111111111,-0.285
10065,10068,11.11111111111111,-0.38
10095,10098,11.11111111111111,-0.305
10163,10166,11.11111111111111,-0.23
10242,10245,11.11111111111111,-0.29
10287,10291,13.888888888888888,-0.38
10315,10318,11.11111111111111,-0.375
10378,10381,11.11111111111111,-0.2
10407,10410,11.11111111111111,-0.185
10415,10419,13.888888888888888,-0.205
10474,10478,13.888888888888888,-0.245
10555,10558,11.11111111111111,-0.32
10599,10602,11.11111111111111,-0.2
10618,10621,11.11111111111111,-0.2
10660,10663,11.11111111111111,-0.205
10667,10670,11.11111111111111,-0.21
10838,10841,11.11111111111111,-0.17
10899,10903,13.888888888888888,-0.165
10905,10908,11.11111111111111,-0.185
10919,10922,11.11111111111111,-0.125
10956,10959,11.11111111111111,-0.235
11034,11037,11.11111111111111,-0.25
11070,11073,11.11111111111111,-0.18
11097,11100,11.11111111111111,-0.125
11131,11134,11.11111111111111,-0.11
11165,11168,11.11111111111111,0.05
11240,11243,11.11111111111111,-0.255
11262,11265,11.11111111111111,-0.24
11274,11277,11.11111111111111,-0.215
11288,11291,11.11111111111111,-0.19
11310,11314,13.888888888888888,-0.075
11362,11365,11.11111111111111,-0.095
11368,11371,11.11111111111111,-0.05
11422,11426,13.888888888888888,-0.16
11428,11431,11.11111111111111,-0.175
11475,11478,11.11111111111111,-0.24
11514,11517,11.11111111111111,-0.18
11561,11564,11.11111111111111,-0.145
11575,11578,11.11111111111111,-0.135
11599,11602,11.11111111111111,-0.145
11627,11630,11.11111111111111,-0.01
11655,11658,11.11111111111111,-0.22
11740,11743,11.11111111111111,-0.25
11771,11774,11.11111111111111,-0.195
11851,11854,11.11111111111111,-0.145
11882,11885,11.11111111111111,-0.24
11891,11896,16.666666666666668,-0.285
11950,11953,11.11111111111111,-0.4
12071,12076,16.666666666666668,-0.255
12090,12093,11.11111111111111,-0.16
12180,12183,11.11111111111111,-0.41
12205,12208,11.11111111111111,-0.345
12285,12288,11.11111111111111,-0.245
12297,12300,11.11111111111111,-0.26
12407,12410,11.11111111111111,-0.43
12417,12420,11.11111111111111,-0.415
12424,12427,11.11111111111111,-0.365
12441,12444,11.11111111111111,-0.34
12448,12451,11.11111111111111,-0.305
12452,12455,11.11111111111111,-0.29
12463,12466,11.11111111111111,-0.3
12502,12506,13.888888888888888,-0.255
12510,12513,11.11111111111111,-0.235
12514,12517,11.11111111111111,-0.255
12633,12637,13.888888888888888,-0.41
12712,12715,11.11111111111111,-0.2
12719,12723,13.888888888888888,-0.24
12768,12771,11.11111111111111,-0.24
12870,12873,11.11111111111111,-0.36
12914,12917,11.11111111111111,-0.26
12928,12931,11.11111111111111,-0.23
12966,12969,11.11111111111111,-0.18
12981,12984,11.11111111111111,-0.175
13055,13059,13.888888888888888,-0.225
13101,13104,11.11111111111111,-0.265
13138,13142,13.888888888888888,-0.17
13147,13150,11.11111111111111,-0.115
13211,13214,11.11111111111111,-0.06
13260,13264,13.888888888888888,0.13
13265,13268,11.11111111111111,0.135
13384,13387,11.11111111111111,-0.13
13397,13400,11.11111111111111,-0.1
13462,13465,11.11111111111111,-0.12
13573,13576,11.11111111111111,-0.33
13581,13584,11.11111111111111,-0.315
13641,13644,11.11111111111111,-0.2
13649,13653,13.888888888888888,-0.18
13713,13716,11.11111111111111,-0.22
13765,13768,11.11111111111111,-0.33
14029,14032,11.11111111111111,-0.44
14050,14053,11.11111111111111,-0.435
14133,14138,16.666666666666668,-0.29
14144,14148,13.888888888888888,-0.265
14167,14170,11.11111111111111,-0.235
14224,14227,11.11111111111111,-0.295
14284,14287,11.11111111111111,-0.375
14309,14312,11.11111111111111,-0.33
14374,14378,13.888888888888888,-0.245
14387,14390,11.11111111111111,-0.25
14408,14411,11.11111111111111,-0.235
14508,14511,11.11111111111111,-0.38
14527,14531,13.888888888888888,-0.34
14545,14548,11.11111111111111,-0.33
14563,14566,11.11111111111111,-0.25
14605,14608,11.11111111111111,-0.195
14631,14634,11.11111111111111,-0.175
14689,14692,11.11111111111111,-0.165
14740,14744,13.888888888888888,-0.255
14758,14761,11.11111111111111,-0.28
14855,14858,11.11111111111111,-0.105
14868,14871,11.11111111111111,-0.1
15052,15055,11.11111111111111,0.01
15087,15093,19.444444444444446,-0.005
15235,15238,11.11111111111111,-0.125
15261,15264,11.11111111111111,-0.08
15283,15286,11.11111111111111,-0.005
15298,15302,13.888888888888888,-0.04
15349,15353,13.888888888888888,-0.035
15498,15502,13.888888888888888,-0.1
15540,15543,11.11111111111111,-0.095
15608,15611,11.11111111111111,0.07
15634,15637,11.11111111111111,-0.17
15675,15679,13.888888888888888,-0.265
15732,15735,11.11111111111111,-0.195
15754,15757,11.11111111111111,-0.125
15788,15791,11.11111111111111,-0.155
15959,15962,11.11111111111111,-0.295
15987,15990,11.11111111111111,-0.17
16010,16014,13.888888888888888,-0.21
16020,16023,11.11111111111111,-0.195
16044,16047,11.11111111111111,-0.2
16053,16056,11.11111111111111,-0.18
16065,16068,11.11111111111111,-0.095
16161,16164,11.11111111111111,-0.345
16257,16260,11.11111111111111,-0.15
16273,16276,11.11111111111111,-0.145
16372,16375,11.11111111111111,-0.27
16437,16440,11.11111111111111,-0.16
16508,16511,11.11111111111111,-0.07
16619,16622,11.11111111111111,-0.36
16663,16666,11.11111111111111,-0.225
16688,16691,11.11111111111111,-0.165
16761,16764,11.11111111111111,-0.17
16945,16948,11.11111111111111,-0.3
17043,17046,11.11111111111111,-0.4
17170,17173,11.11111111111111,-0.305
17175,17178,11.11111111111111,-0.305
17214,17218,13.888888888888888,-0.275
17244,17247,11.11111111111111,-0.115
17263,17266,11.11111111111111,-0.33
17306,17309,11.11111111111111,-0.415
17327,17332,16.666666666666668,-0.4
17559,17562,11.11111111111111,-0.31
17715,17718,11.11111111111111,0.065
17738,17741,11.11111111111111,-0.16
17792,17795,11.11111111111111,-0.225
17829,17832,11.11111111111111,-0.13
17835,17838,11.11111111111111,-0.11
17854,17857,11.11111111111111,-0.035
17904,17907,11.11111111111111,-0.075
18039,18043,13.888888888888888,-0.3
18048,18051,11.11111111111111,-0.3
18127,18132,16.666666666666668,-0.215
18152,18155,11.11111111111111,-0.16
18201,18204,11.11111111111111,-0.265
18263,18266,11.11111111111111,-0.375
18273,18276,11.11111111111111,-0.39
18289,18292,11.11111111111111,-0.4
18306,18309,11.11111111111111,-0.335
18322,18325,11.11111111111111,-0.305
18390,18393,11.11111111111111,-0.255
18443,18446,11.11111111111111,-0.37
18511,18514,11.11111111111111,-0.47
18532,18535,11.11111111111111,-0.45
18549,18552,11.11111111111111,-0.415
18558,18561,11.11111111111111,-0.375
18637,18640,11.11111111111111,-0.34
18679,18683,13.888888888888888,-0.45
18731,18735,13.888888888888888,-0.565
18842,18845,11.11111111111111,-0.385
18903,18906,11.11111111111111,-0.44
18962,18967,16.666666666666668,-0.505
18968,18971,11.11111111111111,-0.515
18999,19002,11.11111111111111,-0.46
19046,19050,13.888888888888888,-0.355
19095,19098,11.11111111111111,-0.355
19200,19203,11.11111111111111,-0.535
19211,19215,13.888888888888888,-0.495
19236,19239,11.11111111111111,-0.445
19248,19251,11.11111111111111,-0.415
19274,19277,11.11111111111111,-0.335
19320,19323,11.11111111111111,-0.345
19325,19329,13.888888888888888,-0.32
19335,19338,11.11111111111111,-0.34
19361,19365,13.888888888888888,-0.17
19478,19481,11.11111111111111,-0.4
19489,19496,22.22222222222222,-0.375
19516,19519,11.11111111111111,-0.29
19528,19531,11.11111111111111,-0.315
19544,19548,13.888888888888888,-0.31
19569,19572,11.11111111111111,-0.285
19622,19625,11.11111111111111,-0.395
19663,19666,11.11111111111111,-0.475
19670,19673,11.11111111111111,-0.47
19692,19696,13.888888888888888,-0.435
19701,19704,11.11111111111111,-0.39
19714,19717,11.11111111111111,-0.375
20007,20011,13.888888888888888,-0.32
20044,20047,11.11111111111111,-0.16
20129,20133,13.888888888888888,-0.485
20216,20219,11.11111111111111,-0.34
20222,20225,11.11111111111111,-0.355
20288,20292,13.888888888888888,-0.345
20353,20356,11.11111111111111,-0.47
20372,20375,11.11111111111111,-0.41
20393,20396,11.11111111111111,-0.365
20397,20400,11.11111111111111,-0.35
20435,20438,11.11111111111111,-0.295
20467,20470,11.11111111111111,-0.27
20481,20484,11.11111111111111,-0.26
20496,20499,11.11111111111111,-0.185
20806,20809,11.11111111111111,-0.395
20865,20868,11.11111111111111,-0.25
20896,20900,13.888888888888888,-0.23
20918,20921,11.11111111111111,-0.23
20933,20936,11.11111111111111,-0.215
20981,20984,11.11111111111111,-0.24
20991,20994,11.11111111111111,-0.295
21072,21075,11.11111111111111,-0.34
21154,21157,11.11111111111111,-0.205
21269,21272,11.11111111111111,-0.355
21287,21290,11.11111111111111,-0.33
21293,21297,13.888888888888888,-0.31
21312,21315,11.11111111111111,-0.275
21365,21368,11.11111111111111,-0.21
21383,21387,13.888888888888888,-0.19
21512,21516,13.888888888888888,-0.29
21550,21555,16.666666666666668,-0.205
21609,21612,11.11111111111111,-0.11
21627,21630,11.11111111111111,-0.11
21632,21635,11.11111111111111,-0.085
21651,21654,11.11111111111111,-0.005
21688,21691,11.11111111111111,-0.15
21809,21812,11.11111111111111,0.025
21840,21843,11.11111111111111,0.015
21966,21969,11.11111111111111,-0.245
22057,22060,11.11111111111111,-0.17
22136,22140,13.888888888888888,-0.295
22189,22192,11.11111111111111,-0.475
22261,22264,11.11111111111111,-0.35
22286,22291,16.666666666666668,-0.385
22298,22301,11.11111111111111,-0.375
22311,22314,11.11111111111111,-0.39
22332,22335,11.11111111111111,-0.295
22349,22352,11.11111111111111,-0.205
22362,22367,16.666666666666668,-0.395
22411,22414,11.11111111111111,-0.49
22415,22418,11.11111111111111,-0.49
22432,22436,13.888888888888888,-0.475
22456,22459,11.11111111111111,-0.4
22498,22501,11.11111111111111,-0.23
22522,22526,13.888888888888888,-0.24
22579,22584,16.666666666666668,0.015
22659,22662,11.11111111111111,-0.245
22730,22734,13.888888888888888,-0.01
22746,22749,11.11111111111111,-0.005
22783,22786,11.11111111111111,0.065
22835,22838,11.11111111111111,-0.02
22842,22845,11.11111111111111,-0.01
22893,22896,11.11111111111111,-0.095
22904,22908,13.888888888888888,-0.12
22919,22922,11.11111111111111,-0.1
22932,22935,11.11111111111111,-0.115
22941,22944,11.11111111111111,-0.065
22970,22973,11.11111111111111,-0.055
22975,22978,11.11111111111111,-0.04
23006,23010,13.888888888888888,-0.095
23015,23018,11.11111111111111,-0.065
23126,23129,11.11111111111111,-0.38
23152,23155,11.11111111111111,-0.375
23168,23171,11.11111111111111,-0.35
23187,23190,11.11111111111111,-0.365
23211,23214,11.11111111111111,-0.355
23230,23233,11.11111111111111,-0.345
23247,23251,13.888888888888888,-0.365
23253,23256,11.11111111111111,-0.325
23437,23440,11.11111111111111,-0.32
23532,23535,11.11111111111111,-0.255
23650,23653,11.11111111111111,-0.015
23664,23667,11.11111111111111,0.0
23707,23711,13.888888888888888,0.05
23715,23718,11.11111111111111,0.04
23737,23740,11.11111111111111,0.19
23765,23768,11.11111111111111,-0.055
23835,23838,11.11111111111111,-0.19
23940,23943,11.11111111111111,-0.1
23953,23957,13.888888888888888,-0.11
23998,24002,13.888888888888888,-0.2
24004,24007,11.11111111111111,-0.25
24069,24072,11.11111111111111,-0.37
24096,24100,13.888888888888888,-0.355
24106,24109,11.11111111111111,-0.34
24134,24137,11.11111111111111,-0.31
24164,24167,11.11111111111111,-0.315
24282,24286,13.888888888888888,-0.56
24308,24311,11.11111111111111,-0.52
24333,24336,11.11111111111111,-0.465
24348,24351,11.11111111111111,-0.45
24371,24377,19.444444444444446,-0.38
24378,24381,11.11111111111111,-0.39
24383,24386,11.11111111111111,-0.4
24395,24398,11.11111111111111,-0.375
24400,24403,11.11111111111111,-0.375
24411,24415,13.888888888888888,-0.37
24463,24466,11.11111111111111,-0.35
24527,24530,11.11111111111111,-0.395
24547,24550,11.11111111111111,-0.345
24553,24556,11.11111111111111,-0.33
24635,24638,11.11111111111111,-0.145
24652,24655,11.11111111111111,-0.125
24694,24697,11.11111111111111,-0.185
24742,24745,11.11111111111111,-0.265
24795,24798,11.11111111111111,-0.165
24862,24865,11.11111111111111,-0.005
24983,24986,11.11111111111111,-0.175
25033,25036,11.11111111111111,-0.105
25073,25076,11.11111111111111,-0.09
25102,25105,11.11111111111111,-0.065
25113,25116,11.11111111111111,0.05
25201,25204,11.11111111111111,-0.235
25263,25266,11.11111111111111,-0.175
25306,25309,11.11111111111111,-0.105
25312,25315,11.11111111111111,-0.12
25334,25338,13.888888888888888,-0.12
25424,25427,11.11111111111111,-0.275
25449,25453,13.888888888888888,-0.29
25524,25527,11.11111111111111,-0.19
25680,25683,11.11111111111111,-0.305
25703,25706,11.11111111111111,-0.285
25728,25731,11.11111111111111,-0.235
25889,25892,11.11111111111111,-0.325
25925,25928,11.11111111111111,-0.3
25943,25946,11.11111111111111,-0.27
25980,25983,11.11111111111111,-0.18
26003,26007,13.888888888888888,-0.19
26015,26018,11.11111111111111,-0.195
26020,26023,11.11111111111111,-0.205
26046,26049,11.11111111111111,-0.06
26121,26125,13.888888888888888,-0.43
26128,26132,13.888888888888888,-0.435
26160,26163,11.11111111111111,-0.375
26204,26207,11.11111111111111,-0.275
26268,26272,13.888888888888888,-0.24
26283,26287,13.888888888888888,-0.145
26296,26299,11.11111111111111,-0.34
26356,26359,11.11111111111111,-0.505
26403,26406,11.11111111111111,-0.46
26411,26414,11.11111111111111,-0.42
26435,26439,13.888888888888888,-0.34
26525,26528,11.11111111111111,-0.19
26607,26610,11.11111111111111,-0.515
26613,26616,11.11111111111111,-0.5
26638,26641,11.11111111111111,-0.46
26666,26669,11.11111111111111,-0.355
26681,26684,11.11111111111111,-0.355
26730,26733,11.11111111111111,-0.32
26776,26779,11.11111111111111,-0.385
26780,26783,11.11111111111111,-0.365
26832,26835,11.11111111111111,-0.435
26877,26880,11.11111111111111,-0.345
26902,26905,11.11111111111111,-0.225
26943,26947,13.888888888888888,-0.24
26950,26953,11.11111111111111,-0.22
26998,27001,11.11111111111111,-0.265
27113,27116,11.11111111111111,-0.33
27165,27169,13.888888888888888,-0.215
27182,27185,11.11111111111111,-0.255
27324,27327,11.11111111111111,-0.32
27366,27369,11.11111111111111,-0.225
27410,27414,13.888888888888888,-0.21
27423,27426,11.11111111111111,-0.22
27472,27476,13.888888888888888,-0.28
27511,27514,11.11111111111111,-0.31
27546,27549,11.11111111111111,-0.26
27758,27761,11.11111111111111,-0.115
27778,27781,11.11111111111111,-0.09
27786,27790,13.888888888888888,-0.08
27821,27824,11.11111111111111,-0.035
27894,27897,11.11111111111111,-0.03
27936,27939,11.11111111111111,-0.07
27996,27999,11.11111111111111,-0.195
28009,28013,13.888888888888888,-0.195
28065,28069,13.888888888888888,-0.065
28096,28099,11.11111111111111,-0.11
28175,28178,11.11111111111111,-0.18
28237,28240,11.11111111111111,-0.295
28261,28265,13.888888888888888,-0.23
28279,28283,13.888888888888888,-0.24
28369,28372,11.11111111111111,-0.08
28382,28385,11.11111111111111,-0.03
28446,28449,11.11111111111111,-0.34
28469,28472,11.11111111111111,-0.335
28530,28533,11.11111111111111,-0.205
28598,28601,11.11111111111111,-0.125
28684,28687,11.11111111111111,-0.36
28715,28718,11.11111111111111,-0.305
28745,28748,11.11111111111111,-0.26
28822,28825,11.11111111111111,-0.19
28865,28869,13.888888888888888,-0.24
28872,28875,11.11111111111111,-0.26
28940,28943,11.11111111111111,-0.33
28959,28962,11.11111111111111,-0.315
28967,28970,11.11111111111111,-0.275
28982,28987,16.666666666666668,-0.26
29022,29025,11.11111111111111,-0.21
29083,29087,13.888888888888888,-0.06
29175,29178,11.11111111111111,-0.315
29195,29198,11.11111111111111,-0.24
29200,29203,11.11111111111111,-0.25
29222,29225,11.11111111111111,-0.195
29239,29242,11.11111111111111,-0.165
29249,29252,11.11111111111111,-0.16
29271,29274,11.11111111111111,-0.145
29487,29490,11.11111111111111,-0.095
29500,29503,11.11111111111111,-0.085
29532,29535,11.11111111111111,-0.005
29612,29617,16.666666666666668,-0.21
29625,29628,11.11111111111111,-0.19
29666,29669,11.11111111111111,-0.12
29705,29708,11.11111111111111,-0.06
29726,29729,11.11111111111111,-0.035
29759,29762,11.11111111111111,-0.04
29926,29931,16.666666666666668,-0.025
29935,29939,13.888888888888888,-0.05
29942,29946,13.888888888888888,-0.065
29975,29978,11.11111111111111,-0.035
29989,29993,13.888888888888888,-0.015
30035,30038,11.11111111111111,-0.12
30124,30128,13.888888888888888,-0.14
30135,30138,11.11111111111111,-0.115
30139,30142,11.11111111111111,-0.105
30198,30201,11.11111111111111,-0.07
30321,30324,11.11111111111111,-0.22
30349,30353,13.888888888888888,-0.175
30387,30390,11.11111111111111,-0.085
30447,30450,11.11111111111111,-0.07
30564,30567,11.11111111111111,-0.205
30576,30579,11.11111111111111,-0.19
30603,30606,11.11111111111111,-0.15
30617,30620,11.11111111111111,-0.12
30629,30632,11.11111111111111,-0.08
30636,30639,11.11111111111111,-0.06
30640,30643,11.11111111111111,-0.11
30672,30675,11.11111111111111,-0.075
30742,30745,11.11111111111111,-0.19
30841,30844,11.11111111111111,-0.12
30850,30853,11.11111111111111,-0.05
30855,30858,11.11111111111111,-0.035
30885,30889,13.888888888888888,-0.045
30926,30929,11.11111111111111,0.055
30931,30934,11.11111111111111,0.095
30952,30955,11.11111111111111,-0.13
31019,31023,13.888888888888888,-0.215
31043,31049,19.444444444444446,-0.18
31060,31063,11.11111111111111,-0.175
31085,31088,11.11111111111111,-0.085
31124,31127,11.11111111111111,-0.1
31135,31138,11.11111111111111,-0.09
31199,31202,11.11111111111111,-0.165
31263,31267,13.888888888888888,-0.21
31285,31288,11.11111111111111,-0.125
31290,31293,11.11111111111111,-0.135
31304,31307,11.11111111111111,-0.1
31344,31347,11.11111111111111,-0.015
31362,31365,11.11111111111111,-0.03
31382,31385,11.11111111111111,0.035
31433,31436,11.11111111111111,-0.055
31590,31593,11.11111111111111,0.085
31605,31608,11.11111111111111,0.11
31710,31713,11.11111111111111,-0.125
31716,31719,11.11111111111111,-0.12
31806,31810,13.888888888888888,-0.06
31859,31862,11.11111111111111,0.13
31983,31986,11.11111111111111,-0.215
31999,32002,11.11111111111111,-0.2
32028,32031,11.11111111111111,-0.18
32045,32049,13.888888888888888,-0.195
32052,32055,11.11111111111111,-0.18
32148,32151,11.11111111111111,-0.29
32165,32169,13.888888888888888,-0.395
32210,32213,11.11111111111111,-0.31
32280,32283,11.11111111111111,-0.245
32290,32293,11.11111111111111,-0.235
32316,32319,11.11111111111111,-0.125
32326,32329,11.11111111111111,-0.105
32488,32491,11.11111111111111,-0.27
32538,32541,11.11111111111111,-0.26
32578,32581,11.11111111111111,-0.325
32611,32614,11.11111111111111,-0.38
32627,32630,11.11111111111111,-0.38
32647,32650,11.11111111111111,-0.395
32675,32678,11.11111111111111,-0.3
32742,32745,11.11111111111111,-0.21
32753,32757,13.888888888888888,-0.22
32904,32908,13.888888888888888,-0.24
32961,32964,11.11111111111111,-0.165
32979,32982,11.11111111111111,-0.135
32989,32992,11.11111111111111,-0.14
33003,33007,13.888888888888888,-0.09
33042,33046,13.888888888888888,-0.19
33052,33055,11.11111111111111,-0.205
33093,33097,13.888888888888888,-0.25
33105,33108,11.11111111111111,-0.225
33135,33138,11.11111111111111,-0.145
33160,33163,11.11111111111111,-0.095
33167,33170,11.11111111111111,-0.04
33204,33207,11.11111111111111,-0.055
33433,33436,11.11111111111111,-0.165
33442,33445,11.11111111111111,-0.165
33491,33494,11.11111111111111,-0.265
33579,33583,13.888888888888888,-0.41
33627,33630,11.11111111111111,-0.325
33710,33713,11.11111111111111,-0.21
33805,33808,11.11111111111111,-0.49
33833,33836,11.11111111111111,-0.43
33883,33886,11.11111111111111,-0.37
33895,33898,11.11111111111111,-0.355
33906,33909,11.11111111111111,-0.33
33914,33917,11.11111111111111,-0.325
34014,34018,13.888888888888888,-0.415
34026,34029,11.11111111111111,-0.405
34034,34038,13.888888888888888,-0.37
34083,34086,11.11111111111111,-0.245
34174,34177,11.11111111111111,0.05
34326,34329,11.11111111111111,-0.01
34346,34349,11.11111111111111,-0.01
34368,34372,13.888888888888888,0.03
34415,34418,11.11111111111111,-0.085
34594,34597,11.11111111111111,-0.2
34603,34606,11.11111111111111,-0.22
34609,34612,11.11111111111111,-0.195
34628,34631,11.11111111111111,-0.08
34700,34703,11.11111111111111,-0.46
34710,34713,11.11111111111111,-0.46
34732,34735,11.11111111111111,-0.425
34744,34747,11.11111111111111,-0.39
34770,34773,11.11111111111111,-0.305
34797,34800,11.11111111111111,-0.34
34802,34805,11.11111111111111,-0.33
34812,34815,11.11111111111111,-0.32
34819,34822,11.11111111111111,-0.32
34854,34857,11.11111111111111,-0.15
34923,34927,13.888888888888888,-0.495
34958,34962,13.888888888888888,-0.5
35023,35027,13.888888888888888,-0.39
35049,35052,11.11111111111111,-0.37
35161,35164,11.11111111111111,-0.47
35234,35237,11.11111111111111,-0.345
35288,35291,11.11111111111111,-0.25
35298,35301,11.11111111111111,-0.23
35328,35331,11.11111111111111,-0.025
35430,35433,11.11111111111111,-0.29
35445,35448,11.11111111111111,-0.24
35478,35482,13.888888888888888,-0.145
35525,35528,11.11111111111111,-0.12
35548,35552,13.888888888888888,-0.065
35581,35584,11.11111111111111,-0.17
35653,35657,13.888888888888888,-0.285
35692,35695,11.11111111111111,-0.245
35761,35764,11.11111111111111,-0.17
35806,35809,11.11111111111111,-0.265
35810,35813,11.11111111111111,-0.25
35815,35818,11.11111111111111,-0.295
35911,35914,11.11111111111111,-0.32
35931,35934,11.11111111111111,-0.25
36023,36026,11.11111111111111,-0.07
36101,36104,11.11111111111111,-0.37
36105,36109,13.888888888888888,-0.36
36152,36155,11.11111111111111,-0.285
36172,36175,11.11111111111111,-0.165
36185,36188,11.11111111111111,-0.17
36194,36197,11.11111111111111,-0.175
36230,36233,11.11111111111111,-0.11
36283,36286,11.11111111111111,-0.175
36343,36347,13.888888888888888,-0.24
36351,36354,11.11111111111111,-0.2
36368,36371,11.11111111111111,-0.165
36448,36452,13.888888888888888,-0.045
36528,36531,11.11111111111111,-0.185
36572,36575,11.11111111111111,-0.265
36608,36611,11.11111111111111,-0.24
36620,36624,13.888888888888888,-0.21
36647,36651,13.888888888888888,-0.145
36685,36688,11.11111111111111,-0.135
36710,36714,13.888888888888888,-0.06
36744,36747,11.11111111111111,-0.22
36749,36752,11.11111111111111,-0.23
36805,36808,11.11111111111111,-0.315
36829,36833,13.888888888888888,-0.295
36871,36874,11.11111111111111,-0.18
36906,36911,16.666666666666668,-0.205
36919,36922,11.11111111111111,-0.21
36930,36933,11.11111111111111,-0.185
37040,37044,13.888888888888888,-0.32
37053,37056,11.11111111111111,-0.295
37109,37112,11.11111111111111,-0.155
37126,37129,11.11111111111111,-0.155
37135,37138,11.11111111111111,-0.155
37170,37173,11.11111111111111,-0.065
37243,37246,11.11111111111111,-0.27
37248,37251,11.11111111111111,-0.245
37259,37262,11.11111111111111,-0.25
37336,37339,11.11111111111111,-0.055
37348,37351,11.11111111111111,-0.075
37357,37360,11.11111111111111,-0.05
37417,37420,11.11111111111111,0.125
37480,37483,11.11111111111111,-0.19
37485,37489,13.888888888888888,-0.19
37587,37591,13.888888888888888,-0.09
37601,37605,13.888888888888888,-0.08
37620,37623,11.11111111111111,-0.055
37735,37738,11.11111111111111,-0.26
37949,37952,11.11111111111111,-0.26
37959,37963,13.888888888888888,-0.245
38008,38011,11.11111111111111,-0.145
38274,38277,11.11111111111111,-0.1
38281,38284,11.11111111111111,-0.065
38312,38317,16.666666666666668,-0.07
38365,38368,11.11111111111111,-0.12
38422,38425,11.11111111111111,-0.22
38433,38436,11.11111111111111,-0.225
38505,38509,13.888888888888888,-0.13
38518,38522,13.888888888888888,-0.12
38579,38582,11.11111111111111,0.03
38605,38608,11.11111111111111,-0.185
38665,38668,11.11111111111111,-0.31
38775,38778,11.11111111111111,-0.155
38878,38881,11.11111111111111,-0.345
38903,38906,11.11111111111111,-0.35
38915,38918,11.11111111111111,-0.32
38934,38938,13.888888888888888,-0.275
38991,38995,13.888888888888888,-0.17
39011,39014,11.11111111111111,-0.18
39043,39046,11.11111111111111,-0.015
39067,39070,11.11111111111111,-0.255
39122,39125,11.11111111111111,-0.31
39155,39158,11.11111111111111,-0.27
39161,39164,11.11111111111111,-0.24
39234,39237,11.11111111111111,-0.195
39249,39252,11.11111111111111,-0.18
39300,39303,11.11111111111111,-0.25
39366,39369,11.11111111111111,-0.345
39436,39439,11.11111111111111,-0.185
39449,39452,11.11111111111111,-0.2
39458,39461,11.11111111111111,-0.185
39499,39502,11.11111111111111,-0.145
39590,39594,13.888888888888888,-0.33
39600,39603,11.11111111111111,-0.32
39619,39622,11.11111111111111,-0.295
39679,39682,11.11111111111111,-0.2
39809,39812,11.11111111111111,-0.34
39813,39816,11.11111111111111,-0.365
39842,39845,11.11111111111111,-0.32
39915,39918,11.11111111111111,-0.185
39934,39937,11.11111111111111,-0.21
40049,40052,11.11111111111111,-0.275
40109,40113,13.888888888888888,-0.175
40295,40298,11.11111111111111,-0.195
40301,40304,11.11111111111111,-0.18
40327,40330,11.11111111111111,-0.16
40404,40408,13.888888888888888,-0.1
40422,40426,13.888888888888888,-0.11
40468,40471,11.11111111111111,-0.175
40477,40480,11.11111111111111,-0.215
40531,40534,11.11111111111111,-0.315
40544,40547,11.11111111111111,-0.31
40551,40554,11.11111111111111,-0.275
40563,40566,11.11111111111111,-0.24
40575,40578,11.11111111111111,-0.235
40592,40595,11.11111111111111,-0.185
40634,40637,11.11111111111111,-0.18
40847,40850,11.11111111111111,-0.26
40853,40858,16.666666666666668,-0.24
40880,40883,11.11111111111111,-0.225
40918,40921,11.11111111111111,-0.08
41030,41033,11.11111111111111,-0.335
41050,41053,11.11111111111111,-0.34
41058,41061,11.11111111111111,-0.3
41085,41090,16.666666666666668,-0.275
41182,41185,11.11111111111111,-0.355
41244,41247,11.11111111111111,-0.465
41289,41292,11.11111111111111,-0.415
41383,41386,11.11111111111111,-0.235
41413,41416,11.11111111111111,-0.395
41469,41472,11.11111111111111,-0.53
41504,41507,11.11111111111111,-0.455
41575,41578,11.11111111111111,-0.37
41585,41588,11.11111111111111,-0.355
41639,41642,11.11111111111111,-0.43
41730,41733,11.11111111111111,-0.43
41739,41742,11.11111111111111,-0.4
41753,41756,11.11111111111111,-0.38
41765,41768,11.11111111111111,-0.27
41782,41785,11.11111111111111,-0.31
41793,41796,11.11111111111111,-0.315
41802,41806,13.888888888888888,-0.28
41920,41923,11.11111111111111,-0.34
41994,41997,11.11111111111111,-0.265
42010,42014,13.888888888888888,-0.215
42042,42046,13.888888888888888,-0.195
42109,42112,11.11111111111111,-0.275
42170,42173,11.11111111111111,-0.4
42244,42247,11.11111111111111,-0.27
42276,42279,11.11111111111111,-0.31
42289,42292,11.11111111111111,-0.29
42293,42296,11.11111111111111,-0.29
42325,42329,13.888888888888888,-0.155
42402,42405,11.11111111111111,-0.5
42406,42409,11.11111111111111,-0.515
42419,42422,11.11111111111111,-0.49
42423,42426,11.11111111111111,-0.48
42439,42443,13.888888888888888,-0.455
42485,42490,16.666666666666668,-0.37
42495,42498,11.11111111111111,-0.385
42512,42515,11.11111111111111,-0.385
42524,42527,11.11111111111111,-0.385
42547,42551,13.888888888888888,-0.335
42589,42593,13.888888888888888,-0.435
42645,42648,11.11111111111111,-0.535
42680,42683,11.11111111111111,-0.47
42697,42700,11.11111111111111,-0.43
42772,42776,13.888888888888888,-0.35
42785,42788,11.11111111111111,-0.295
42818,42821,11.11111111111111,-0.395
42929,42932,11.11111111111111,-0.355
42941,42945,13.888888888888888,-0.285
42959,42962,11.11111111111111,-0.31
42970,42973,11.11111111111111,-0.305
42979,42982,11.11111111111111,-0.295
43132,43136,13.888888888888888,-0.27
43178,43181,11.11111111111111,-0.13
43186,43189,11.11111111111111,-0.175
43240,43243,11.11111111111111,-0.09
43329,43332,11.11111111111111,-0.32
43335,43338,11.11111111111111,-0.29
43376,43379,11.11111111111111,-0.245
43389,43392,11.11111111111111,-0.235
43398,43401,11.11111111111111,-0.205
43411,43414,11.11111111111111,-0.205
43420,43423,11.11111111111111,-0.2
43501,43504,11.11111111111111,-0.05
43592,43595,11.11111111111111,-0.405
43612,43615,11.11111111111111,-0.35
43616,43620,13.888888888888888,-0.35
43630,43633,11.11111111111111,-0.335
43913,43916,11.11111111111111,-0.285
44055,44058,11.11111111111111,-0.355
44072,44076,13.888888888888888,-0.32
44093,44096,11.11111111111111,-0.25
44110,44113,11.11111111111111,-0.21
44144,44147,11.11111111111111,-0.19
44168,44171,11.11111111111111,-0.155
44191,44194,11.11111111111111,0.005
44258,44261,11.11111111111111,-0.265
44309,44312,11.11111111111111,-0.12
44318,44321,11.11111111111111,-0.09
44338,44341,11.11111111111111,-0.035
44355,44358,11.11111111111111,-0.005
44376,44379,11.11111111111111,-0.03
44383,44388,16.666666666666668,0.005
44421,44424,11.11111111111111,0.205
44501,44504,11.11111111111111,-0.12
44522,44525,11.11111111111111,-0.12
44536,44541,16.666666666666668,-0.065
44616,44619,11.11111111111111,0.02
44623,44626,11.11111111111111,0.035
44656,44660,13.888888888888888,0.21
44676,44679,11.11111111111111,-0.055
44686,44689,11.11111111111111,-0.11
44713,44716,11.11111111111111,-0.06
44728,44732,13.888888888888888,-0.145
44735,44738,11.11111111111111,-0.175
44782,44785,11.11111111111111,-0.1
44841,44844,11.11111111111111,-0.08
44875,44878,11.11111111111111,0.05
44979,44983,13.888888888888888,-0.29
45005,45010,16.666666666666668,-0.245
45037,45040,11.11111111111111,-0.185
45087,45091,13.888888888888888,-0.2
45141,45145,13.888888888888888,-0.34
45209,45212,11.11111111111111,-0.41
45259,45262,11.11111111111111,-0.29
45304,45307,11.11111111111111,-0.28
45323,45326,11.11111111111111,-0.29
45349,45352,11.11111111111111,-0.135
45364,45367,11.11111111111111,-0.325
45460,45463,11.11111111111111,-0.3
45514,45517,11.11111111111111,-0.2
45526,45529,11.11111111111111,-0.18
45625,45628,11.11111111111111,-0.195
45629,45632,11.11111111111111,-0.21
45635,45638,11.11111111111111,-0.25
45641,45644,11.11111111111111,-0.22
45667,45670,11.11111111111111,-0.17
45673,45676,11.11111111111111,-0.14
45718,45724,19.444444444444446,-0.005
45754,45757,11.11111111111111,0.045
45886,45889,11.11111111111111,-0.035
45896,45899,11.11111111111111,-0.02
45900,45904,13.888888888888888,-0.015
45959,45962,11.11111111111111,0.05
45971,45974,11.11111111111111,0.02
45984,45988,13.888888888888888,0.03
46055,46058,11.11111111111111,-0.08
46147,46151,13.888888888888888,-0.265
46336,46339,11.11111111111111,-0.415
46378,46381,11.11111111111111,-0.395
46451,46454,11.11111111111111,-0.34
46475,46478,11.11111111111111,-0.295
46577,46580,11.11111111111111,-0.44
46593,46597,13.888888888888888,-0.445
46598,46602,13.888888888888888,-0.425
46603,46606,11.11111111111111,-0.405
46610,46613,11.11111111111111,-0.39
46617,46620,11.11111111111111,-0.385
46640,46643,11.11111111111111,-0.295
46811,46814,11.11111111111111,-0.43
46816,46819,11.11111111111111,-0.435
46820,46825,16.666666666666668,-0.43
46829,46832,11.11111111111111,-0.405
46857,46860,11.11111111111111,-0.35
46895,46899,13.888888888888888,-0.29
46902,46905,11.11111111111111,-0.265
46962,46965,11.11111111111111,-0.085
47082,47085,11.11111111111111,-0.35
47130,47133,11.11111111111111,-0.27
47174,47177,11.11111111111111,-0.265
47178,47182,13.888888888888888,-0.27
47200,47203,11.11111111111111,-0.105
47224,47227,11.11111111111111,-0.325
47233,47236,11.11111111111111,-0.375
47285,47288,11.11111111111111,-0.415
47333,47337,13.888888888888888,-0.32
47373,47376,11.11111111111111,-0.28
47381,47384,11.11111111111111,-0.265
47393,47396,11.11111111111111,-0.255
47404,47409,16.666666666666668,-0.245
47420,47424,13.888888888888888,-0.24
47538,47541,11.11111111111111,-0.365
47563,47566,11.11111111111111,-0.31
47605,47608,11.11111111111111,-0.28
47622,47625,11.11111111111111,-0.27
47635,47638,11.11111111111111,-0.255
47642,47645,11.11111111111111,-0.24
47814,47817,11.11111111111111,-0.205
47826,47829,11.11111111111111,-0.22
47831,47834,11.11111111111111,-0.24
47840,47843,11.11111111111111,-0.235
47889,47892,11.11111111111111,-0.12
47924,47928,13.888888888888888,-0.25
47992,47995,11.11111111111111,-0.255
48005,48009,13.888888888888888,-0.255
48048,48051,11.11111111111111,-0.145
48088,48092,13.888888888888888,-0.135
48130,48133,11.11111111111111,0.03
48157,48160,11.11111111111111,-0.22
48168,48171,11.11111111111111,-0.255
48205,48208,11.11111111111111,-0.315
48221,48224,11.11111111111111,-0.3
48321,48324,11.11111111111111,-0.215
48339,48342,11.11111111111111,-0.195
48344,48347,11.11111111111111,-0.205
48369,48372,11.11111111111111,-0.09
48509,48512,11.11111111111111,-0.3
48522,48526,13.888888888888888,-0.235
48553,48556,11.11111111111111,-0.275
48575,48579,13.888888888888888,-0.25
48586,48589,11.11111111111111,-0.245
48640,48643,11.11111111111111,-0.31
48684,48687,11.11111111111111,-0.42
48700,48705,16.666666666666668,-0.405
48714,48717,11.11111111111111,-0.39
48736,48739,11.11111111111111,-0.35
48762,48765,11.11111111111111,-0.275
48766,48770,13.888888888888888,-0.285
48927,48931,13.888888888888888,-0.46
48934,48937,11.11111111111111,-0.475
48979,48982,11.11111111111111,-0.365
49029,49032,11.11111111111111,-0.32
49046,49049,11.11111111111111,-0.305
49059,49062,11.11111111111111,-0.29
49078,49081,11.11111111111111,-0.13
49083,49087,13.888888888888888,-0.15
49154,49158,13.888888888888888,-0.46
49160,49163,11.11111111111111,-0.445
49174,49177,11.11111111111111,-0.44
49253,49256,11.11111111111111,-0.3
49259,49263,13.888888888888888,-0.3
49266,49270,13.888888888888888,-0.29
49279,49283,13.888888888888888,-0.28
49469,49472,11.11111111111111,-0.265
49485,49488,11.11111111111111,-0.315
49494,49497,11.11111111111111,-0.29
49500,49503,11.11111111111111,-0.305
49637,49640,11.11111111111111,-0.435
49662,49665,11.11111111111111,-0.385
49874,49878,13.888888888888888,-0.38
49889,49893,13.888888888888888,-0.35
49989,49992,11.11111111111111,-0.225
50099,50102,11.11111111111111,-0.415
50125,50128,11.11111111111111,-0.39
50180,50183,11.11111111111111,-0.22
50202,50205,11.11111111111111,-0.245
50349,50352,11.11111111111111,-0.385
50373,50376,11.11111111111111,-0.325
50400,50403,11.11111111111111,-0.29
50413,50416,11.11111111111111,-0.22
50433,50436,11.11111111111111,-0.25
50454,50457,11.11111111111111,-0.2
50459,50463,13.888888888888888,-0.235
50472,50475,11.11111111111111,-0.23
50580,50583,11.11111111111111,-0.35
50587,50590,11.11111111111111,-0.3
50598,50601,11.11111111111111,-0.28
50630,50633,11.11111111111111,-0.23
50658,50661,11.11111111111111,-0.125
50673,50676,11.11111111111111,-0.145
50703,50706,11.11111111111111,-0.095
50723,50726,11.11111111111111,-0.06
50774,50777,11.11111111111111,-0.16
50878,50881,11.11111111111111,-0.1
50906,50909,11.11111111111111,-0.055
50924,50927,11.11111111111111,-0.045
50947,50950,11.11111111111111,-0.02
51001,51004,11.11111111111111,-0.14
51005,51008,11.11111111111111,-0.145
51055,51058,11.11111111111111,-0.26
51068,51071,11.11111111111111,-0.26
51111,51114,11.11111111111111,-0.21
51188,51191,11.11111111111111,-0.155
51203,51206,11.11111111111111,-0.105
51287,51290,11.11111111111111,-0.39
51320,51323,11.11111111111111,-0.335
51325,51328,11.11111111111111,-0.315
51398,51402,13.888888888888888,-0.265
51448,51451,11.11111111111111,-0.115
51524,51527,11.11111111111111,-0.4
51532,51538,19.444444444444446,-0.4
51559,51562,11.11111111111111,-0.335
51563,51566,11.11111111111111,-0.35
51603,51607,13.888888888888888,-0.29
51626,51629,11.11111111111111,-0.27
51642,51645,11.11111111111111,-0.245
51834,51837,11.11111111111111,-0.22
51840,51844,13.888888888888888,-0.235
51856,51859,11.11111111111111,-0.21
51881,51884,11.11111111111111,-0.18
51939,51942,11.11111111111111,-0.265
52078,52081,11.11111111111111,-0.16
52243,52246,11.11111111111111,-0.165
52247,52250,11.11111111111111,-0.195
52253,52256,11.11111111111111,-0.15
52266,52270,13.888888888888888,-0.11
52351,52354,11.11111111111111,0.025
52410,52418,25.0,-0.05
52463,52466,11.11111111111111,-0.165
52467,52470,11.11111111111111,-0.18
52486,52489,11.11111111111111,-0.16
52570,52573,11.11111111111111,-0.075
52688,52692,13.888888888888888,-0.295
52749,52752,11.11111111111111,-0.24
52783,52786,11.11111111111111,-0.2
52792,52795,11.11111111111111,-0.21
52806,52809,11.11111111111111,-0.185
52913,52916,11.11111111111111,-0.365
52930,52933,11.11111111111111,-0.385
52988,52993,16.666666666666668,-0.31
53044,53047,11.11111111111111,-0.26
53113,53116,11.11111111111111,-0.33
53151,53154,11.11111111111111,-0.33
53205,53209,13.888888888888888,-0.39
53222,53225,11.11111111111111,-0.36
53232,53235,11.11111111111111,-0.355
53249,53254,16.666666666666668,-0.265
53271,53276,16.666666666666668,-0.285
53406,53409,11.11111111111111,-0.405
53413,53416,11.11111111111111,-0.41
53457,53460,11.11111111111111,-0.32
53486,53489,11.11111111111111,-0.245
53497,53501,13.888888888888888,-0.23
53522,53525,11.11111111111111,-0.2
53544,53547,11.11111111111111,-0.205
53593,53596,11.11111111111111,-0.27
53639,53643,13.888888888888888,-0.33
53650,53653,11.11111111111111,-0.31
53664,53667,11.11111111111111,-0.31
53671,53674,11.11111111111111,-0.245
53682,53685,11.11111111111111,-0.225
53727,53730,11.11111111111111,-0.19
53778,53781,11.11111111111111,-0.065
53915,53919,13.888888888888888,-0.185
53942,53946,13.888888888888888,-0.13
53967,53971,13.888888888888888,-0.135
54042,54045,11.11111111111111,-0.21
54088,54091,11.11111111111111,-0.305
54183,54186,11.11111111111111,-0.215
54198,54201,11.11111111111111,-0.24
54215,54218,11.11111111111111,-0.225
54347,54350,11.11111111111111,-0.435
54375,54378,11.11111111111111,-0.36
54379,54383,13.888888888888888,-0.34
54387,54390,11.11111111111111,-0.37
54413,54416,11.11111111111111,-0.285
54433,54437,13.888888888888888,-0.31
54454,54457,11.11111111111111,-0.265
54511,54514,11.11111111111111,-0.34
54518,54522,13.888888888888888,-0.395
54587,54590,11.11111111111111,-0.47
54591,54594,11.11111111111111,-0.47
54655,54658,11.11111111111111,-0.36
54661,54664,11.11111111111111,-0.385
54673,54677,13.888888888888888,-0.39
54703,54708,16.666666666666668,-0.33
54754,54757,11.11111111111111,-0.425
54807,54810,11.11111111111111,-0.52
54824,54827,11.11111111111111,-0.475
54912,54915,11.11111111111111,-0.375
54938,54941,11.11111111111111,-0.345
55032,55035,11.11111111111111,-0.54
55067,55070,11.11111111111111,-0.46
55123,55126,11.11111111111111,-0.365
55182,55185,11.11111111111111,-0.185
55274,55277,11.11111111111111,-0.49
55292,55295,11.11111111111111,-0.41
55332,55335,11.11111111111111,-0.3
55353,55356,11.11111111111111,-0.345
55364,55367,11.11111111111111,-0.3
55436,55439,11.11111111111111,-0.295
55444,55447,11.11111111111111,-0.335
55493,55496,11.11111111111111,-0.39
55547,55551,13.888888888888888,-0.31
55558,55561,11.11111111111111,-0.29
55593,55597,13.888888888888888,-0.23
55598,55602,13.888888888888888,-0.245
55766,55769,11.11111111111111,-0.32
55798,55801,11.11111111111111,-0.185
56058,56061,11.11111111111111,-0.24
56097,56100,11.11111111111111,-0.2
56117,56120,11.11111111111111,-0.055
56139,56142,11.11111111111111,-0.315
56209,56212,11.11111111111111,-0.385
56304,56308,13.888888888888888,-0.26
56417,56420,11.11111111111111,-0.43
56423,56427,13.888888888888888,-0.425
56521,56524,11.11111111111111,-0.305
56540,56543,11.11111111111111,-0.265
56598,56601,11.11111111111111,-0.32
56653,56656,11.11111111111111,-0.43
56667,56670,11.11111111111111,-0.425
56676,56680,13.888888888888888,-0.4
56702,56705,11.11111111111111,-0.35
56711,56714,11.11111111111111,-0.335
56756,56759,11.11111111111111,-0.285
56760,56763,11.11111111111111,-0.28
56773,56776,11.11111111111111,-0.26
56841,56844,11.11111111111111,-0.3
56914,56919,16.666666666666668,-0.34
56962,56965,11.11111111111111,-0.175
57014,57018,13.888888888888888,-0.18
57047,57050,11.11111111111111,0.035
57051,57054,11.11111111111111,0.01
57078,57081,11.11111111111111,-0.215
57170,57173,11.11111111111111,-0.26
57220,57223,11.11111111111111,-0.19
57255,57258,11.11111111111111,-0.15
57272,57275,11.11111111111111,-0.065
57288,57292,13.888888888888888,0.005
57434,57437,11.11111111111111,-0.18
57476,57479,11.11111111111111,-0.17
57487,57490,11.11111111111111,-0.15
57581,57584,11.11111111111111,-0.305
57593,57596,11.11111111111111,-0.32
57601,57607,19.444444444444446,-0.31
57679,57682,11.11111111111111,-0.175
57719,57722,11.11111111111111,-0.15
57842,57845,11.11111111111111,-0.305
57869,57872,11.11111111111111,-0.225
57961,57964,11.11111111111111,-0.12
57984,57987,11.11111111111111,0.03
58011,58014,11.11111111111111,-0.195
58102,58105,11.11111111111111,-0.205
58184,58187,11.11111111111111,-0.105
58244,58247,11.11111111111111,-0.2
58293,58296,11.11111111111111,-0.28
58318,58321,11.11111111111111,-0.28
58323,58326,11.11111111111111,-0.26
58387,58392,16.666666666666668,-0.15
58425,58428,11.11111111111111,-0.125
58439,58442,11.11111111111111,-0.08
58478,58481,11.11111111111111,-0.23
58525,58528,11.11111111111111,-0.315
58581,58584,11.11111111111111,-0.185
58601,58605,13.888888888888888,-0.13
58752,58755,11.11111111111111,-0.225
58766,58769,11.11111111111111,-0.195
58792,58795,11.11111111111111,-0.115
58877,58880,11.11111111111111,0.045
58896,58899,11.11111111111111,0.115
59030,59033,11.11111111111111,-0.035
59087,59091,13.888888888888888,-0.01
59269,59272,11.11111111111111,-0.08
59396,59399,11.11111111111111,-0.09
59448,59451,11.11111111111111,-0.235
59499,59502,11.11111111111111,-0.125
59587,59590,11.11111111111111,-0.06
59673,59676,11.11111111111111,-0.255
59685,59688,11.11111111111111,-0.265
59705,59708,11.11111111111111,-0.275
59800,59803,11.11111111111111,-0.175
59832,59835,11.11111111111111,0.015
59851,59854,11.11111111111111,-0.2
59900,59903,11.11111111111111,-0.34
60096,60099,11.11111111111111,-0.23
60183,60187,13.888888888888888,-0.175
60225,60231,19.444444444444446,-0.13
60235,60239,13.888888888888888,-0.085
60251,60254,11.11111111111111,-0.06
60273,60276,11.11111111111111,-0.06
60279,60282,11.11111111111111,-0.035
60290,60293,11.11111111111111,0.045
60301,60304,11.11111111111111,0.09
60405,60408,11.11111111111111,-0.155
60413,60416,11.11111111111111,-0.155
60452,60455,11.11111111111111,-0.055
60478,60482,13.888888888888888,-0.11
60527,60530,11.11111111111111,-0.01
60542,60545,11.11111111111111,0.05
60560,60563,11.11111111111111,-0.185
60694,60699,16.666666666666668,-0.2
60706,60709,11.11111111111111,-0.21
60720,60725,16.666666666666668,-0.225
60849,60852,11.11111111111111,-0.395
60930,60933,11.11111111111111,-0.27
60963,60966,11.11111111111111,-0.27
61088,61091,11.11111111111111,-0.41
61149,61153,13.888888888888888,-0.2
61196,61199,11.11111111111111,-0.215
61228,61231,11.11111111111111,-0.045
61260,61263,11.11111111111111,-0.24
61302,61305,11.11111111111111,-0.285
61342,61345,11.11111111111111,-0.195
61383,61387,13.888888888888888,-0.095
61415,61418,11.11111111111111,-0.1
61453,61456,11.11111111111111,-0.13
61468,61471,11.11111111111111,0.0
61533,61537,13.888888888888888,-0.36
61552,61555,11.11111111111111,-0.385
61594,61597,11.11111111111111,-0.32
61602,61606,13.888888888888888,-0.345
61637,61640,11.11111111111111,-0.3
61643,61646,11.11111111111111,-0.32
61649,61652,11.11111111111111,-0.325
61660,61665,16.666666666666668,-0.31
61673,61676,11.11111111111111,-0.295
61677,61680,11.11111111111111,-0.275
61696,61699,11.11111111111111,-0.235
61775,61778,11.11111111111111,-0.49
61827,61830,11.11111111111111,-0.455
61863,61868,16.666666666666668,-0.385
61873,61876,11.11111111111111,-0.4
61909,61913,13.888888888888888,-0.385
62037,62040,11.11111111111111,-0.505
62151,62154,11.11111111111111,-0.355
62192,62195,11.11111111111111,-0.375
62201,62204,11.11111111111111,-0.425
62205,62208,11.11111111111111,-0.445
62300,62303,11.11111111111111,-0.445
62439,62443,13.888888888888888,-0.455
62477,62480,11.11111111111111,-0.51
62481,62484,11.11111111111111,-0.5
62506,62509,11.11111111111111,-0.455
62519,62522,11.11111111111111,-0.43
62570,62573,11.11111111111111,-0.375
62574,62577,11.11111111111111,-0.39
62606,62609,11.11111111111111,-0.39
62611,62614,11.11111111111111,-0.37
62621,62624,11.11111111111111,-0.39
62629,62632,11.11111111111111,-0.365
62635,62638,11.11111111111111,-0.325
62647,62651,13.888888888888888,-0.235
62713,62716,11.11111111111111,-0.58
62758,62761,11.11111111111111,-0.53
62855,62859,13.888888888888888,-0.425
62896,62899,11.11111111111111,-0.31
62969,62972,11.11111111111111,-0.595
62998,63002,13.888888888888888,-0.51
63102,63105,11.11111111111111,-0.38
63194,63198,13.888888888888888,-0.485
63304,63308,13.888888888888888,-0.285
63339,63342,11.11111111111111,-0.23
63448,63451,11.11111111111111,-0.32
63459,63462,11.11111111111111,-0.28
63471,63474,11.11111111111111,-0.27
63492,63496,13.888888888888888,-0.23
63507,63510,11.11111111111111,-0.195
63582,63585,11.11111111111111,-0.025
63611,63614,11.11111111111111,-0.26
63658,63661,11.11111111111111,-0.33
63668,63671,11.11111111111111,-0.335
63704,63707,11.11111111111111,-0.26
63723,63726,11.11111111111111,-0.23
63762,63765,11.11111111111111,-0.225
63770,63774,13.888888888888888,-0.195
63815,63818,11.11111111111111,0.01
63891,63894,11.11111111111111,-0.33
63907,63910,11.11111111111111,-0.315
63917,63920,11.11111111111111,-0.305
63959,63962,11.11111111111111,-0.165
63978,63981,11.11111111111111,-0.195
64125,64128,11.11111111111111,-0.3
64137,64140,11.11111111111111,-0.3
64157,64160,11.11111111111111,-0.28
64168,64171,11.11111111111111,-0.25
64309,64312,11.11111111111111,-0.275
64381,64384,11.11111111111111,-0.375
64414,64417,11.11111111111111,-0.295
64432,64435,11.11111111111111,-0.245
64456,64459,11.11111111111111,-0.28
64484,64487,11.11111111111111,-0.23
64492,64496,13.888888888888888,-0.25
64502,64506,13.888888888888888,-0.21
64533,64536,11.11111111111111,-0.285
64542,64545,11.11111111111111,-0.335
64585,64588,11.11111111111111,-0.405
64638,64641,11.11111111111111,-0.32
64771,64774,11.11111111111111,-0.32
64814,64818,13.888888888888888,-0.385
64821,64824,11.11111111111111,-0.375
64847,64851,13.888888888888888,-0.345
64876,64879,11.11111111111111,-0.295
64892,64895,11.11111111111111,-0.21
65008,65011,11.11111111111111,-0.275
65065,65068,11.11111111111111,-0.285
65086,65089,11.11111111111111,-0.235
65090,65094,13.888888888888888,-0.235
65336,65339,11.11111111111111,-0.215
65471,65474,11.11111111111111,-0.175
65541,65544,11.11111111111111,-0.27
65556,65559,11.11111111111111,-0.225
65592,65595,11.11111111111111,-0.17
65605,65608,11.11111111111111,-0.105
65630,65634,13.888888888888888,-0.15
65642,65645,11.11111111111111,-0.145
65653,65656,11.11111111111111,-0.13
65722,65725,11.11111111111111,-0.25
65823,65827,13.888888888888888,-0.19
65838,65841,11.11111111111111,-0.15
65863,65866,11.11111111111111,-0.18
65885,65889,13.888888888888888,-0.185
65899,65902,11.11111111111111,-0.175
66020,66023,11.11111111111111,-0.26
66072,66075,11.11111111111111,-0.14
66088,66091,11.11111111111111,-0.165
66115,66118,11.11111111111111,-0.125
66125,66128,11.11111111111111,-0.145
66140,66143,11.11111111111111,-0.055
66186,66189,11.11111111111111,-0.225
66234,66237,11.11111111111111,-0.24
66258,66261,11.11111111111111,-0.205
66275,66278,11.11111111111111,-0.125
66362,66367,16.666666666666668,-0.09
66471,66474,11.11111111111111,-0.33
66525,66528,11.11111111111111,-0.22
66541,66544,11.11111111111111,-0.2
66587,66590,11.11111111111111,-0.19
66594,66597,11.11111111111111,-0.215
66617,66620,11.11111111111111,-0.065
66724,66727,11.11111111111111,-0.38
66798,66801,11.11111111111111,-0.285
66815,66818,11.11111111111111,-0.22
66958,66963,16.666666666666668,-0.37
66965,66968,11.11111111111111,-0.38
66972,66975,11.11111111111111,-0.33
67083,67088,16.666666666666668,-0.16
67182,67185,11.11111111111111,-0.395
67197,67200,11.11111111111111,-0.345
67227,67231,13.888888888888888,-0.29
67245,67248,11.11111111111111,-0.22
67264,67267,11.11111111111111,-0.26
67268,67271,11.11111111111111,-0.255
67277,67281,13.888888888888888,-0.25
67301,67305,13.888888888888888,-0.24
67403,67407,13.888888888888888,-0.37
67442,67445,11.11111111111111,-0.29
67466,67469,11.11111111111111,-0.205
67503,67506,11.11111111111111,-0.25
67512,67515,11.11111111111111,-0.25
67554,67557,11.11111111111111,-0.1
67583,67587,13.888888888888888,-0.31
67626,67629,11.11111111111111,-0.405
67639,67644,16.666666666666668,-0.395
67652,67655,11.11111111111111,-0.38
67710,67713,11.11111111111111,-0.205
67722,67725,11.11111111111111,-0.25
67727,67730,11.11111111111111,-0.225
67741,67744,11.11111111111111,-0.195
67896,67900,13.888888888888888,-0.25
67911,67914,11.11111111111111,-0.23
67934,67937,11.11111111111111,-0.145
67947,67950,11.11111111111111,-0.165
67951,67955,13.888888888888888,-0.165
67987,67990,11.11111111111111,-0.16
67997,68000,11.11111111111111,-0.165
68008,68011,11.11111111111111,-0.16
68029,68032,11.11111111111111,-0.025
68050,68053,11.11111111111111,-0.26
68097,68100,11.11111111111111,-0.385
68202,68205,11.11111111111111,-0.295
68210,68213,11.11111111111111,-0.27
68340,68343,11.11111111111111,-0.47
68393,68396,11.11111111111111,-0.34
68429,68432,11.11111111111111,-0.35
68436,68439,11.11111111111111,-0.335
68447,68451,13.888888888888888,-0.335
68502,68505,11.11111111111111,-0.43
68552,68556,13.888888888888888,-0.515
68562,68566,13.888888888888888,-0.51
68592,68595,11.11111111111111,-0.44
68639,68642,11.11111111111111,-0.335
68777,68781,13.888888888888888,-0.495
68786,68790,13.888888888888888,-0.485
68835,68838,11.11111111111111,-0.4
68839,68842,11.11111111111111,-0.4
68857,68861,13.888888888888888,-0.305
68929,68932,11.11111111111111,-0.285
69017,69020,11.11111111111111,-0.505
69032,69035,11.11111111111111,-0.485
69036,69039,11.11111111111111,-0.47
69051,69054,11.11111111111111,-0.455
69077,69080,11.11111111111111,-0.405
69146,69149,11.11111111111111,-0.345
69158,69161,11.11111111111111,-0.345
69169,69172,11.11111111111111,-0.235
69198,69201,11.11111111111111,-0.4
69206,69210,13.888888888888888,-0.415
69252,69255,11.11111111111111,-0.48
69270,69273,11.11111111111111,-0.485
69378,69381,11.11111111111111,-0.3
69499,69502,11.11111111111111,-0.36
69542,69545,11.11111111111111,-0.255
69760,69763,11.11111111111111,-0.305
69840,69844,13.888888888888888,-0.225
69846,69850,13.888888888888888,-0.22
69860,69864,13.888888888888888,-0.08
69954,69957,11.11111111111111,-0.475
69960,69964,13.888888888888888,-0.435
70002,70005,11.11111111111111,-0.405
70008,70011,11.11111111111111,-0.385
70013,70016,11.11111111111111,-0.36
70067,70070,11.11111111111111,-0.385
70184,70187,11.11111111111111,-0.565
70188,70191,11.11111111111111,-0.55
70254,70257,11.11111111111111,-0.385
70271,70274,11.11111111111111,-0.395
70296,70299,11.11111111111111,-0.37
70336,70339,11.11111111111111,-0.205
70358,70361,11.11111111111111,-0.455
70406,70409,11.11111111111111,-0.525
70430,70434,13.888888888888888,-0.505
70440,70443,11.11111111111111,-0.495
70521,70524,11.11111111111111,-0.36
70532,70536,13.888888888888888,-0.34
70538,70541,11.11111111111111,-0.325
70581,70585,13.888888888888888,-0.3
70773,70777,13.888888888888888,-0.17
70820,70823,11.11111111111111,-0.215
70876,70879,11.11111111111111,-0.29
70924,70927,11.11111111111111,-0.22
70937,70940,11.11111111111111,-0.16
70963,70966,11.11111111111111,-0.19
71062,71065,11.11111111111111,-0.285
71120,71123,11.11111111111111,-0.41
71133,71136,11.11111111111111,-0.395
71164,71167,11.11111111111111,-0.34
71228,71231,11.11111111111111,-0.31
71239,71242,11.11111111111111,-0.325
71326,71329,11.11111111111111,-0.48
71347,71350,11.11111111111111,-0.51
71451,71454,11.11111111111111,-0.28
71473,71476,11.11111111111111,-0.265
71478,71481,11.11111111111111,-0.255
71495,71498,11.11111111111111,-0.09
71574,71577,11.11111111111111,-0.41
71618,71621,11.11111111111111,-0.25
71625,71628,11.11111111111111,-0.29
71667,71671,13.888888888888888,-0.17
71690,71693,11.11111111111111,-0.12
71703,71706,11.11111111111111,-0.095
71825,71828,11.11111111111111,-0.27
71839,71842,11.11111111111111,-0.24
71869,71872,11.11111111111111,-0.155
71880,71883,11.11111111111111,-0.14
71924,71927,11.11111111111111,-0.19
72050,72054,13.888888888888888,-0.375
72109,72112,11.11111111111111,-0.27
72140,72144,13.888888888888888,-0.29
72148,72151,11.11111111111111,-0.285
72158,72161,11.11111111111111,-0.275
72253,72257,13.888888888888888,-0.43
72319,72322,11.11111111111111,-0.37
72331,72334,11.11111111111111,-0.32
72385,72388,11.11111111111111,-0.265
72416,72419,11.11111111111111,-0.145
72494,72497,11.11111111111111,-0.335
72501,72504,11.11111111111111,-0.36
72506,72509,11.11111111111111,-0.34
72532,72536,13.888888888888888,-0.295
72549,72552,11.11111111111111,-0.27
72559,72562,11.11111111111111,-0.255
72569,72572,11.11111111111111,-0.195
72585,72588,11.11111111111111,-0.19
72598,72601,11.11111111111111,-0.175
72625,72628,11.11111111111111,-0.115
72630,72633,11.11111111111111,-0.125
72641,72645,13.888888888888888,-0.08
72727,72730,11.11111111111111,-0.195
72733,72736,11.11111111111111,-0.195
72766,72769,11.11111111111111,-0.175
72781,72785,13.888888888888888,-0.11
72794,72798,13.888888888888888,-0.075
72806,72809,11.11111111111111,-0.035
72830,72833,11.11111111111111,-0.04
72836,72840,13.888888888888888,-0.055
72843,72846,11.11111111111111,-0.03
72899,72902,11.11111111111111,0.035
72914,72917,11.11111111111111,-0.085
72960,72963,11.11111111111111,-0.19
72992,72995,11.11111111111111,-0.255
73015,73018,11.11111111111111,-0.195
73040,73043,11.11111111111111,-0.135
73045,73048,11.11111111111111,-0.125
73094,73097,11.11111111111111,-0.09
73111,73114,11.11111111111111,-0.035
73223,73226,11.11111111111111,-0.275
73251,73254,11.11111111111111,-0.225
73281,73284,11.11111111111111,-0.19
73335,73338,11.11111111111111,-0.12
73354,73357,11.11111111111111,-0.06
73453,73457,13.888888888888888,-0.275
73511,73517,19.444444444444446,-0.145
73557,73560,11.11111111111111,-0.11
73604,73607,11.11111111111111,-0.12
73615,73618,11.11111111111111,-0.1
73674,73677,11.11111111111111,-0.175
73708,73711,11.11111111111111,-0.08
73792,73795,11.11111111111111,0.055
73823,73826,11.11111111111111,0.185
73851,73854,11.11111111111111,0.06
73897,73901,13.888888888888888,-0.09
73906,73909,11.11111111111111,-0.115
73979,73982,11.11111111111111,0.005
74031,74035,13.888888888888888,0.025
74057,74060,11.11111111111111,0.105
74074,74077,11.11111111111111,0.01
74204,74207,11.11111111111111,-0.12
74236,74239,11.11111111111111,-0.125
74247,74250,11.11111111111111,-0.11
74255,74258,11.11111111111111,-0.12
74264,74267,11.11111111111111,-0.13
74372,74375,11.11111111111111,-0.365
74408,74411,11.11111111111111,-0.34
74441,74444,11.11111111111111,-0.255
74451,74454,11.11111111111111,-0.195
74474,74477,11.11111111111111,-0.24
74488,74491,11.11111111111111,-0.225
74507,74510,11.11111111111111,-0.245
74641,74644,11.11111111111111,-0.365
74656,74659,11.11111111111111,-0.37
74715,74720,16.666666666666668,-0.285
74740,74743,11.11111111111111,-0.285
74783,74786,11.11111111111111,-0.345
74832,74835,11.11111111111111,-0.455
74873,74876,11.11111111111111,-0.425
74901,74904,11.11111111111111,-0.39
74906,74909,11.11111111111111,-0.375
75084,75087,11.11111111111111,-0.425
75157,75160,11.11111111111111,-0.18
75183,75186,11.11111111111111,-0.22
75187,75190,11.11111111111111,-0.215
75274,75277,11.11111111111111,-0.31
75350,75353,11.11111111111111,-0.375
75391,75394,11.11111111111111,-0.28
75408,75412,13.888888888888888,-0.27
75434,75437,11.11111111111111,-0.295
75453,75456,11.11111111111111,-0.31
75552,75555,11.11111111111111,-0.515
75580,75583,11.11111111111111,-0.485
75619,75622,11.11111111111111,-0.395
75628,75631,11.11111111111111,-0.36
75636,75642,19.444444444444446,-0.395
75663,75666,11.11111111111111,-0.4
75698,75701,11.11111111111111,-0.29
75723,75726,11.11111111111111,-0.415
75776,75779,11.11111111111111,-0.585
75812,75815,11.11111111111111,-0.53
75826,75829,11.11111111111111,-0.51
75861,75864,11.11111111111111,-0.4
75882,75886,13.888888888888888,-0.415
75889,75892,11.11111111111111,-0.405
75896,75899,11.11111111111111,-0.415
75915,75918,11.11111111111111,-0.37
76089,76092,11.11111111111111,-0.37
76187,76190,11.11111111111111,-0.415
76251,76254,11.11111111111111,-0.52
76273,76276,11.11111111111111,-0.5
76304,76307,11.11111111111111,-0.47
76321,76324,11.11111111111111,-0.355
76343,76346,11.11111111111111,-0.405
76349,76352,11.11111111111111,-0.39
76394,76397,11.11111111111111,-0.305
76403,76408,16.666666666666668,-0.22
76507,76510,11.11111111111111,-0.505
76520,76523,11.11111111111111,-0.465
76559,76563,13.888888888888888,-0.345
76606,76609,11.11111111111111,-0.36
76709,76712,11.11111111111111,-0.49
76727,76730,11.11111111111111,-0.48
76847,76850,11.11111111111111,-0.31
76893,76896,11.11111111111111,-0.375
77021,77024,11.11111111111111,-0.25
77037,77042,16.666666666666668,-0.23
77122,77125,11.11111111111111,-0.265
77177,77181,13.888888888888888,-0.345
77232,77235,11.11111111111111,-0.245
77237,77240,11.11111111111111,-0.22
77311,77315,13.888888888888888,-0.19
77322,77325,11.11111111111111,-0.115
77349,77352,11.11111111111111,-0.295
77354,77357,11.11111111111111,-0.28
77398,77401,11.11111111111111,-0.42
77432,77435,11.11111111111111,-0.415
77461,77466,16.666666666666668,-0.35
77467,77470,11.11111111111111,-0.34
77522,77525,11.11111111111111,-0.275
77552,77555,11.11111111111111,-0.28
77655,77658,11.11111111111111,-0.46
77673,77676,11.11111111111111,-0.47
77763,77767,13.888888888888888,-0.31
77777,77780,11.11111111111111,-0.3
77783,77786,11.11111111111111,-0.35
77793,77796,11.11111111111111,-0.25
77824,77827,11.11111111111111,-0.375
77922,77925,11.11111111111111,-0.395
77965,77968,11.11111111111111,-0.34
77981,77984,11.11111111111111,-0.355
77985,77988,11.11111111111111,-0.36
78111,78114,11.11111111111111,-0.45
78115,78118,11.11111111111111,-0.45
78153,78157,13.888888888888888,-0.41
78170,78173,11.11111111111111,-0.305
78195,78199,13.888888888888888,-0.31
78220,78223,11.11111111111111,-0.27
78332,78335,11.11111111111111,-0.39
78369,78372,11.11111111111111,-0.36
78457,78460,11.11111111111111,-0.175
78468,78471,11.11111111111111,-0.17
78516,78519,11.11111111111111,-0.26
78592,78595,11.11111111111111,-0.34
78643,78647,13.888888888888888,-0.265
78648,78651,11.11111111111111,-0.25
78674,78677,11.11111111111111,-0.27
78678,78681,11.11111111111111,-0.27
78705,78708,11.11111111111111,-0.28
78765,78768,11.11111111111111,-0.365
78802,78805,11.11111111111111,-0.47
78811,78814,11.11111111111111,-0.47
78831,78834,11.11111111111111,-0.44
78885,78888,11.11111111111111,-0.295
78906,78909,11.11111111111111,-0.33
78981,78984,11.11111111111111,-0.18
79082,79085,11.11111111111111,-0.455
79228,79231,11.11111111111111,-0.39
79306,79309,11.11111111111111,-0.45
79330,79333,11.11111111111111,-0.37
79336,79341,16.666666666666668,-0.355
79368,79372,13.888888888888888,-0.285
79385,79389,13.888888888888888,-0.285
79424,79427,11.11111111111111,-0.225
79438,79441,11.11111111111111,-0.115
79454,79457,11.11111111111111,-0.27
79516,79519,11.11111111111111,-0.365
79545,79548,11.11111111111111,-0.34
79593,79596,11.11111111111111,-0.19
79603,79607,13.888888888888888,-0.205
79626,79629,11.11111111111111,-0.145
79748,79751,11.11111111111111,-0.265
79771,79774,11.11111111111111,-0.195
79785,79788,11.11111111111111,-0.175
79829,79832,11.11111111111111,-0.02
79880,79883,11.11111111111111,-0.01
79920,79923,11.11111111111111,0.06
79974,79977,11.11111111111111,-0.165
80005,80008,11.11111111111111,-0.29
80080,80083,11.11111111111111,-0.185
80100,80103,11.11111111111111,-0.205
80149,80152,11.11111111111111,-0.06
80162,80166,13.888888888888888,-0.23
80221,80224,11.11111111111111,-0.38
80244,80248,13.888888888888888,-0.41
80296,80299,11.11111111111111,-0.24
80317,80320,11.11111111111111,-0.31
80335,80338,11.11111111111111,-0.325
80450,80453,11.11111111111111,-0.475
80484,80488,13.888888888888888,-0.425
80550,80554,13.888888888888888,-0.32
80562,80565,11.11111111111111,-0.325
80577,80580,11.11111111111111,-0.335
80589,80592,11.11111111111111,-0.325
80678,80681,11.11111111111111,-0.48
80711,80715,13.888888888888888,-0.42
80727,80730,11.11111111111111,-0.37
80819,80822,11.11111111111111,-0.25
80827,80830,11.11111111111111,-0.24
80868,80871,11.11111111111111,-0.315
80872,80875,11.11111111111111,-0.295
80923,80926,11.11111111111111,-0.365
80992,80995,11.11111111111111,-0.175
81036,81039,11.11111111111111,-0.215
81053,81056,11.11111111111111,-0.205
81111,81114,11.11111111111111,-0.285
81175,81178,11.11111111111111,-0.31
81220,81223,11.11111111111111,-0.17
81237,81240,11.11111111111111,-0.185
81251,81254,11.11111111111111,-0.175
81266,81269,11.11111111111111,-0.16
81292,81295,11.11111111111111,-0.125
81392,81395,11.11111111111111,-0.345
81505,81508,11.11111111111111,-0.195
81510,81513,11.11111111111111,-0.205
81574,81577,11.11111111111111,-0.285
81689,81692,11.11111111111111,-0.25
81725,81728,11.11111111111111,-0.225
81761,81765,13.888888888888888,-0.23
81799,81802,11.11111111111111,-0.285
81876,81880,13.888888888888888,-0.365
81881,81884,11.11111111111111,-0.325
81888,81891,11.11111111111111,-0.355
81916,81919,11.11111111111111,-0.245
81927,81930,11.11111111111111,-0.2
81956,81959,11.11111111111111,-0.235
81995,81998,11.11111111111111,-0.14
82006,82009,11.11111111111111,-0.015
82039,82042,11.11111111111111,-0.265
82089,82092,11.11111111111111,-0.33
82126,82130,13.888888888888888,-0.23
82138,82141,11.11111111111111,-0.235
82168,82171,11.11111111111111,-0.145
82182,82185,11.11111111111111,-0.12
82237,82240,11.11111111111111,-0.015
82308,82311,11.11111111111111,-0.145
82352,82355,11.11111111111111,-0.22
82366,82369,11.11111111111111,-0.19
82374,82377,11.11111111111111,-0.165
82426,82429,11.11111111111111,-0.14
82446,82449,11.11111111111111,-0.09
82474,82477,11.11111111111111,-0.035
82481,82484,11.11111111111111,0.055
82560,82563,11.11111111111111,-0.32
82638,82641,11.11111111111111,-0.16
82672,82676,13.888888888888888,-0.185
82681,82684,11.11111111111111,-0.205
82809,82812,11.11111111111111,-0.38
82835,82838,11.11111111111111,-0.31
82858,82861,11.11111111111111,-0.23
82909,82912,11.11111111111111,-0.25
82925,82928,11.11111111111111,-0.215
82954,82958,13.888888888888888,-0.095
82984,82987,11.11111111111111,-0.34
83045,83049,13.888888888888888,-0.35
83076,83079,11.11111111111111,-0.305
83095,83098,11.11111111111111,-0.21
83205,83209,13.888888888888888,-0.3
83255,83259,13.888888888888888,-0.41
83265,83268,11.11111111111111,-0.39
83269,83272,11.11111111111111,-0.395
83319,83322,11.11111111111111,-0.285
83358,83361,11.11111111111111,-0.24
83418,83421,11.11111111111111,-0.07
83555,83558,11.11111111111111,-0.295
83568,83571,11.11111111111111,-0.19
83598,83601,11.11111111111111,-0.19
83626,83629,11.11111111111111,-0.175
83653,83656,11.11111111111111,-0.015
83681,83684,11.11111111111111,-0.22
83728,83732,13.888888888888888,-0.31
83739,83742,11.11111111111111,-0.33
83746,83749,11.11111111111111,-0.33
83778,83781,11.11111111111111,-0.23
83782,83785,11.11111111111111,-0.235
83787,83790,11.11111111111111,-0.235
83791,83794,11.11111111111111,-0.215
83804,83807,11.11111111111111,-0.155
83841,83845,13.888888888888888,-0.18
83919,83922,11.11111111111111,-0.215
83966,83969,11.11111111111111,-0.315
83975,83979,13.888888888888888,-0.315
83988,83991,11.11111111111111,-0.335
83998,84002,13.888888888888888,-0.295
84068,84071,11.11111111111111,-0.215
84076,84079,11.11111111111111,-0.21
84098,84102,13.888888888888888,-0.175
84106,84109,11.11111111111111,-0.195
84128,84131,11.11111111111111,-0.035
84197,84200,11.11111111111111,-0.34
84235,84238,11.11111111111111,-0.325
84280,84283,11.11111111111111,-0.215
84291,84295,13.888888888888888,-0.235
84330,84333,11.11111111111111,-0.205
84386,84390,13.888888888888888,-0.335
84434,84437,11.11111111111111,-0.43
84479,84483,13.888888888888888,-0.345
84563,84566,11.11111111111111,-0.27
84567,84570,11.11111111111111,-0.27
84667,84670,11.11111111111111,-0.53
84688,84691,11.11111111111111,-0.58
84723,84726,11.11111111111111,-0.61
84733,84736,11.11111111111111,-0.65
84750,84754,13.888888888888888,-0.615
84829,84832,11.11111111111111,-0.785
84955,84959,13.888888888888888,-1.14
84960,84963,11.11111111111111,-1.15
84995,84999,13.888888888888888,-1.08
85020,85023,11.11111111111111,-1.055
85097,85101,13.888888888888888,-1.065
85155,85158,11.11111111111111,-1.135
85245,85248,11.11111111111111,-0.78
85254,85257,11.11111111111111,-0.745
85281,85284,11.11111111111111,-0.67
85300,85303,11.11111111111111,-0.47
85377,85380,11.11111111111111,-0.62
85463,85467,13.888888888888888,-0.34
85475,85478,11.11111111111111,-0.325
85484,85487,11.11111111111111,-0.295
85488,85491,11.11111111111111,-0.295
85604,85607,11.11111111111111,-0.225
85628,85631,11.11111111111111,-0.145
85652,85656,13.888888888888888,-0.075
85668,85671,11.11111111111111,-0.07
85703,85706,11.11111111111111,0.015
85709,85714,16.666666666666668,0.035
85736,85741,16.666666666666668,0.075
85784,85787,11.11111111111111,0.06
85923,85927,13.888888888888888,0.205
86004,86009,16.666666666666668,0.375
86032,86036,13.888888888888888,0.15
86094,86098,13.888888888888888,0.075
86109,86112,11.11111111111111,0.065
86142,86146,13.888888888888888,0.13
86179,86182,11.11111111111111,0.145
86272,86275,11.11111111111111,0.07
86314,86318,13.888888888888888,-0.04
86395,86399,13.888888888888888,0.125
86474,86477,11.11111111111111,0.325
86491,86494,11.11111111111111,0.12
86540,86543,11.11111111111111,0.035
86545,86548,11.11111111111111,-0.01
86574,86578,13.888888888888888,0.085
86614,86617,11.11111111111111,0.165
86683,86686,11.11111111111111,0.265
86690,86693,11.11111111111111,0.275
86695,86698,11.11111111111111,0.34
86773,86776,11.11111111111111,0.105
86844,86848,13.888888888888888,0.275
86853,86856,11.11111111111111,0.345
86879,86882,11.11111111111111,0.305
86926,86930,13.888888888888888,0.35
86975,86978,11.11111111111111,0.235
87044,87047,11.11111111111111,0.235
87052,87055,11.11111111111111,0.26
87128,87131,11.11111111111111,0.405
87145,87149,13.888888888888888,0.42
87179,87182,11.11111111111111,0.5
87309,87312,11.11111111111111,0.38
87558,87561,11.11111111111111,0.305
87735,87738,11.11111111111111,0.075
87746,87749,11.11111111111111,0.075
87759,87763,13.888888888888888,0.085
87765,87768,11.11111111111111,0.06
87803,87806,11.11111111111111,0.11
87816,87819,11.11111111111111,0.17
87820,87823,11.11111111111111,0.165
87865,87869,13.888888888888888,0.135
87929,87932,11.11111111111111,0.055
87965,87968,11.11111111111111,-0.065
88035,88038,11.11111111111111,-0.035
88065,88069,13.888888888888888,0.02
88104,88109,16.666666666666668,-0.02
88145,88148,11.11111111111111,0.145
88208,88211,11.11111111111111,-0.185
88258,88261,11.11111111111111,-0.12
88286,88289,11.11111111111111,-0.035
88348,88351,11.11111111111111,0.0
88362,88365,11.11111111111111,-0.02
88419,88422,11.11111111111111,-0.125
88463,88466,11.11111111111111,-0.2
88551,88554,11.11111111111111,-0.005
88565,88568,11.11111111111111,0.01
88597,88601,13.888888888888888,0.015
88752,88755,11.11111111111111,-0.075
88862,88866,13.888888888888888,0.14
88976,88979,11.11111111111111,-0.16
88988,88993,16.666666666666668,-0.14
89013,89016,11.11111111111111,-0.05
89075,89078,11.11111111111111,-0.085
89195,89199,13.888888888888888,-0.28
89235,89238,11.11111111111111,-0.215
89267,89271,13.888888888888888,-0.18
89280,89283,11.11111111111111,-0.175
89298,89301,11.11111111111111,-0.2
89476,89479,11.11111111111111,-0.195
89485,89488,11.11111111111111,-0.135
89530,89533,11.11111111111111,-0.12
89689,89694,16.666666666666668,-0.18
89750,89753,11.11111111111111,-0.07
89777,89780,11.11111111111111,-0.01
89786,89789,11.11111111111111,-0.025
89792,89795,11.11111111111111,-0.015
89892,89895,11.11111111111111,-0.235
89900,89903,11.11111111111111,-0.205
89915,89918,11.11111111111111,-0.235
89947,89951,13.888888888888888,-0.155
90008,90012,13.888888888888888,-0.095
90147,90150,11.11111111111111,-0.36
90203,90206,11.11111111111111,-0.17
90218,90222,13.888888888888888,-0.195
90223,90226,11.11111111111111,-0.18
90381,90384,11.11111111111111,-0.395
90475,90479,13.888888888888888,-0.27
90564,90567,11.11111111111111,-0.4
90607,90610,11.11111111111111,-0.47
90633,90636,11.11111111111111,-0.45
90647,90650,11.11111111111111,-0.42
90658,90661,11.11111111111111,-0.395
90704,90707,11.11111111111111,-0.31
90742,90746,13.888888888888888,-0.315
90940,90943,11.11111111111111,-0.29
90950,90953,11.11111111111111,-0.285
90978,90981,11.11111111111111,-0.235
91040,91043,11.11111111111111,-0.28
91052,91055,11.11111111111111,-0.31
91152,91156,13.888888888888888,-0.295
91163,91166,11.11111111111111,-0.26
91172,91175,11.11111111111111,-0.17
91217,91220,11.11111111111111,-0.165
91227,91233,19.444444444444446,-0.18
91263,91266,11.11111111111111,0.015
91279,91282,11.11111111111111,-0.185
91354,91357,11.11111111111111,-0.295
91389,91392,11.11111111111111,-0.24
91478,91481,11.11111111111111,-0.165
91603,91606,11.11111111111111,-0.35
91628,91631,11.11111111111111,-0.275
91766,91769,11.11111111111111,-0.335
91864,91867,11.11111111111111,-0.39
91904,91907,11.11111111111111,-0.285
91935,91938,11.11111111111111,-0.335
91954,91957,11.11111111111111,-0.315
91986,91990,13.888888888888888,-0.13
92000,92003,11.11111111111111,-0.285
92019,92022,11.11111111111111,-0.41
92086,92089,11.11111111111111,-0.43
92141,92144,11.11111111111111,-0.285
92177,92180,11.11111111111111,-0.285
92186,92189,11.11111111111111,-0.295
92248,92251,11.11111111111111,-0.32
92332,92335,11.11111111111111,-0.355
92415,92418,11.11111111111111,-0.235
92433,92436,11.11111111111111,-0.18
92488,92491,11.11111111111111,-0.255
92532,92538,19.444444444444446,-0.35
92558,92561,11.11111111111111,-0.345
92583,92586,11.11111111111111,-0.285
92599,92602,11.11111111111111,-0.24
92620,92623,11.11111111111111,-0.205
92664,92667,11.11111111111111,-0.19
92721,92724,11.11111111111111,-0.275
92817,92820,11.11111111111111,-0.34
92851,92854,11.11111111111111,-0.245
92885,92888,11.11111111111111,-0.28
92895,92898,11.11111111111111,-0.27
92920,92923,11.11111111111111,-0.265
92927,92930,11.11111111111111,-0.235
93088,93091,11.11111111111111,-0.265
93092,93095,11.11111111111111,-0.255
93250,93253,11.11111111111111,-0.335
93356,93359,11.11111111111111,-0.145
93376,93379,11.11111111111111,-0.185
93494,93497,11.11111111111111,-0.26
93503,93506,11.11111111111111,-0.3
93562,93565,11.11111111111111,-0.165
93566,93569,11.11111111111111,-0.13
93600,93603,11.11111111111111,-0.08
93898,93901,11.11111111111111,0.015
93905,93908,11.11111111111111,-0.12
93960,93963,11.11111111111111,-0.33
94083,94086,11.11111111111111,-0.225
94102,94105,11.11111111111111,-0.17
94108,94111,11.11111111111111,-0.225
94197,94200,11.11111111111111,-0.365
94204,94207,11.11111111111111,-0.41
94210,94213,11.11111111111111,-0.37
94216,94219,11.11111111111111,-0.39
94244,94247,11.11111111111111,-0.335
94272,94276,13.888888888888888,-0.265
94313,94317,13.888888888888888,-0.265
94445,94448,11.11111111111111,-0.4
94466,94469,11.11111111111111,-0.415
94487,94490,11.11111111111111,-0.32
94583,94586,11.11111111111111,-0.2
94605,94608,11.11111111111111,-0.12
94616,94619,11.11111111111111,-0.02
94695,94699,13.888888888888888,-0.355
94705,94708,11.11111111111111,-0.32
94803,94807,13.888888888888888,-0.16
94879,94882,11.11111111111111,-0.2
94932,94935,11.11111111111111,-0.265
94955,94959,13.888888888888888,-0.245
95054,95057,11.11111111111111,-0.095
95063,95066,11.11111111111111,-0.075
95077,95080,11.11111111111111,0.0
95162,95165,11.11111111111111,-0.18
95205,95208,11.11111111111111,-0.065
95259,95262,11.11111111111111,-0.06
95281,95284,11.11111111111111,-0.07
95297,95300,11.11111111111111,-0.045
95305,95308,11.11111111111111,-0.05
95351,95354,11.11111111111111,-0.15
95394,95397,11.11111111111111,-0.24
95406,95409,11.11111111111111,-0.255
95430,95433,11.11111111111111,-0.245
95491,95494,11.11111111111111,-0.16
95496,95499,11.11111111111111,-0.2
95525,95528,11.11111111111111,-0.16
95563,95566,11.11111111111111,0.015
95580,95583,11.11111111111111,-0.22
95628,95631,11.11111111111111,-0.31
95655,95658,11.11111111111111,-0.325
95663,95670,22.22222222222222,-0.29
95692,95695,11.11111111111111,-0.24
95718,95721,11.11111111111111,-0.14
95731,95736,16.666666666666668,-0.165
95746,95749,11.11111111111111,-0.13
95762,95765,11.11111111111111,-0.125
95766,95769,11.11111111111111,-0.14
95771,95774,11.11111111111111,-0.125
95777,95780,11.11111111111111,-0.14
95823,95827,13.888888888888888,-0.19
95973,95976,11.11111111111111,-0.115
96022,96025,11.11111111111111,-0.09
96062,96065,11.11111111111111,-0.215
96073,96076,11.11111111111111,-0.23
96118,96121,11.11111111111111,-0.31
96133,96136,11.11111111111111,-0.285
96159,96162,11.11111111111111,-0.24
96217,96220,11.11111111111111,-0.175
96346,96349,11.11111111111111,-0.345
96400,96403,11.11111111111111,-0.285
96435,96438,11.11111111111111,-0.215
96591,96594,11.11111111111111,-0.415
96611,96614,11.11111111111111,-0.35
96696,96700,13.888888888888888,-0.24
96906,96909,11.11111111111111,-0.29
96938,96941,11.11111111111111,-0.335
96965,96968,11.11111111111111,-0.32
97011,97014,11.11111111111111,-0.4
97065,97070,16.666666666666668,-0.46
97110,97113,11.11111111111111,-0.365
97120,97124,13.888888888888888,-0.36
97142,97146,13.888888888888888,-0.26
97160,97164,13.888888888888888,-0.27
97166,97169,11.11111111111111,-0.28
97171,97174,11.11111111111111,-0.275
97194,97197,11.11111111111111,-0.255
97347,97350,11.11111111111111,-0.33
97354,97357,11.11111111111111,-0.285
97383,97386,11.11111111111111,-0.31
97409,97412,11.11111111111111,-0.285
97422,97425,11.11111111111111,-0.275
97447,97451,13.888888888888888,-0.145
97467,97470,11.11111111111111,-0.39
97517,97521,13.888888888888888,-0.55
97525,97529,13.888888888888888,-0.56
97558,97561,11.11111111111111,-0.53
97604,97607,11.11111111111111,-0.45
97632,97635,11.11111111111111,-0.465
97681,97684,11.11111111111111,-0.345
97696,97701,16.666666666666668,-0.57
97709,97712,11.11111111111111,-0.605
97790,97793,11.11111111111111,-0.685
97798,97801,11.11111111111111,-0.645
97884,97888,13.888888888888888,-0.605
97909,97912,11.11111111111111,-0.465
98035,98038,11.11111111111111,-0.69
98040,98043,11.11111111111111,-0.695
98106,98109,11.11111111111111,-0.62
98110,98113,11.11111111111111,-0.605
98114,98117,11.11111111111111,-0.625
98135,98138,11.11111111111111,-0.43
98219,98222,11.11111111111111,-0.75
98238,98241,11.11111111111111,-0.745
98263,98266,11.11111111111111,-0.665
98316,98319,11.11111111111111,-0.575
98337,98340,11.11111111111111,-0.53
98394,98398,13.888888888888888,-0.61
98487,98490,11.11111111111111,-0.62
98502,98506,13.888888888888888,-0.595
98517,98520,11.11111111111111,-0.485
98524,98528,13.888888888888888,-0.5
98535,98538,11.11111111111111,-0.53
98544,98547,11.11111111111111,-0.52
98548,98551,11.11111111111111,-0.515
98561,98564,11.11111111111111,-0.51
98595,98598,11.11111111111111,-0.295
98729,98733,13.888888888888888,-0.495
98739,98742,11.11111111111111,-0.405
98772,98775,11.11111111111111,-0.35
98783,98786,11.11111111111111,-0.33
98799,98802,11.11111111111111,-0.345
98926,98929,11.11111111111111,-0.46
98934,98937,11.11111111111111,-0.45
98939,98943,13.888888888888888,-0.45
99014,99018,13.888888888888888,-0.3
99135,99138,11.11111111111111,-0.5
99288,99291,11.11111111111111,-0.14
99368,99371,11.11111111111111,-0.485
99439,99443,13.888888888888888,-0.36
99461,99464,11.11111111111111,-0.37
99474,99479,16.666666666666668,-0.375
99601,99604,11.11111111111111,-0.59
99617,99621,13.888888888888888,-0.58
99681,99684,11.11111111111111,-0.45
99709,99712,11.11111111111111,-0.43
99767,99770,11.11111111111111,-0.51
99821,99824,11.11111111111111,-0.625
99833,99836,11.11111111111111,-0.615
99873,99878,16.666666666666668,-0.5
99929,99932,11.11111111111111,-0.415
100124,100127,11.11111111111111,-0.34
100148,100151,11.11111111111111,-0.32
100160,100163,11.11111111111111,-0.315
100169,100172,11.11111111111111,-0.33
100220,100223,11.11111111111111,-0.385
100226,100230,13.888888888888888,-0.375
100274,100277,11.11111111111111,-0.445
100300,100303,11.11111111111111,-0.42
100362,100365,11.11111111111111,-0.235
100393,100396,11.11111111111111,-0.185
100406,100409,11.11111111111111,-0.2
100459,100462,11.11111111111111,-0.27
100514,100517,11.11111111111111,-0.355
100537,100540,11.11111111111111,-0.325
100611,100614,11.11111111111111,-0.21
100616,100619,11.11111111111111,-0.23
100624,100628,13.888888888888888,-0.195
100644,100647,11.11111111111111,-0.175
100685,100689,13.888888888888888,-0.305
100758,100761,11.11111111111111,-0.42
100799,100804,16.666666666666668,-0.335
100876,100879,11.11111111111111,-0.26
100914,100917,11.11111111111111,-0.34
100985,100988,11.11111111111111,-0.425
101004,101008,13.888888888888888,-0.34
101047,101050,11.11111111111111,-0.245
101059,101064,16.666666666666668,-0.255
101125,101128,11.11111111111111,-0.09
101321,101324,11.11111111111111,-0.22
101415,101418,11.11111111111111,-0.365
101430,101433,11.11111111111111,-0.36
101442,101445,11.11111111111111,-0.35
101508,101511,11.11111111111111,-0.175
101512,101515,11.11111111111111,-0.195
101520,101523,11.11111111111111,-0.18
101648,101651,11.11111111111111,-0.305
101655,101658,11.11111111111111,-0.295
101677,101681,13.888888888888888,-0.265
101728,101732,13.888888888888888,-0.12
101750,101753,11.11111111111111,-0.115
101891,101894,11.11111111111111,-0.275
101973,101976,11.11111111111111,-0.125
101993,101996,11.11111111111111,-0.135
102017,102020,11.11111111111111,-0.105
102043,102046,11.11111111111111,0.055
102144,102147,11.11111111111111,-0.265
102155,102158,11.11111111111111,-0.24
102190,102193,11.11111111111111,-0.135
102205,102208,11.11111111111111,-0.14
102270,102273,11.11111111111111,-0.02
102340,102343,11.11111111111111,-0.33
102361,102365,13.888888888888888,-0.29
102471,102474,11.11111111111111,-0.15
102580,102583,11.11111111111111,-0.29
102600,102603,11.11111111111111,-0.245
102605,102608,11.11111111111111,-0.25
102613,102617,13.888888888888888,-0.215
102627,102630,11.11111111111111,-0.2
102642,102645,11.11111111111111,-0.125
102667,102670,11.11111111111111,-0.13
102680,102684,13.888888888888888,-0.105
102701,102705,13.888888888888888,-0.1
102712,102715,11.11111111111111,-0.035
102749,102752,11.11111111111111,-0.185
102812,102815,11.11111111111111,-0.225
102829,102832,11.11111111111111,-0.18
102892,102895,11.11111111111111,-0.03
102928,102931,11.11111111111111,-0.02
102980,102983,11.11111111111111,-0.105
103025,103028,11.11111111111111,-0.2
103078,103081,11.11111111111111,-0.13
103092,103095,11.11111111111111,-0.125
103115,103118,11.11111111111111,-0.05
103163,103167,13.888888888888888,-0.055
103220,103224,13.888888888888888,-0.175
103289,103292,11.11111111111111,-0.285
103309,103312,11.11111111111111,-0.23
103356,103360,13.888888888888888,-0.17
103397,103400,11.11111111111111,-0.18
103446,103449,11.11111111111111,-0.26
103452,103456,13.888888888888888,-0.245
103505,103508,11.11111111111111,-0.37
103593,103596,11.11111111111111,-0.215
103603,103606,11.11111111111111,-0.23
103614,103617,11.11111111111111,-0.23
103626,103631,16.666666666666668,-0.22
103644,103647,11.11111111111111,-0.125
103665,103668,11.11111111111111,-0.235
103741,103745,13.888888888888888,-0.365
103753,103757,13.888888888888888,-0.335
103777,103780,11.11111111111111,-0.285
103797,103800,11.11111111111111,-0.215
103885,103888,11.11111111111111,-0.095
103903,103906,11.11111111111111,-0.33
103913,103916,11.11111111111111,-0.345
103977,103980,11.11111111111111,-0.42
104057,104060,11.11111111111111,-0.26
104069,104072,11.11111111111111,-0.27
104084,104088,13.888888888888888,-0.26
104124,104128,13.888888888888888,-0.06
104157,104160,11.11111111111111,-0.31
104224,104227,11.11111111111111,-0.375
104239,104242,11.11111111111111,-0.335
104261,104264,11.11111111111111,-0.295
104271,104274,11.11111111111111,-0.205
104275,104279,13.888888888888888,-0.2
104295,104298,11.11111111111111,-0.225
104445,104449,13.888888888888888,-0.36
104517,104521,13.888888888888888,-0.23
104561,104564,11.11111111111111,-0.23
104726,104729,11.11111111111111,-0.305
104790,104794,13.888888888888888,-0.265
104839,104842,11.11111111111111,-0.365
104850,104853,11.11111111111111,-0.395
104898,104901,11.11111111111111,-0.44
104907,104913,19.444444444444446,-0.41
104918,104922,13.888888888888888,-0.395
104933,104936,11.11111111111111,-0.38
104943,104946,11.11111111111111,-0.345
105016,105021,16.666666666666668,-0.27
105147,105150,11.11111111111111,-0.375
105178,105181,11.11111111111111,-0.33
105185,105188,11.11111111111111,-0.305
105191,105194,11.11111111111111,-0.24
105200,105203,11.11111111111111,-0.23
105210,105213,11.11111111111111,-0.27
105353,105357,13.888888888888888,-0.375
105384,105387,11.11111111111111,-0.32
105399,105402,11.11111111111111,-0.295
105516,105520,13.888888888888888,-0.06
105528,105531,11.11111111111111,-0.245
105541,105544,11.11111111111111,-0.26
105582,105585,11.11111111111111,-0.38
105588,105591,11.11111111111111,-0.36
105594,105598,13.888888888888888,-0.39
105637,105640,11.11111111111111,-0.29
105680,105683,11.11111111111111,-0.265
105698,105701,11.11111111111111,-0.225
105703,105706,11.11111111111111,-0.245
105763,105766,11.11111111111111,-0.325
105815,105818,11.11111111111111,-0.425
105854,105857,11.11111111111111,-0.38
105874,105877,11.11111111111111,-0.36
105963,105966,11.11111111111111,-0.2
105971,105974,11.11111111111111,-0.135
105993,105996,11.11111111111111,-0.36
106057,106060,11.11111111111111,-0.455
106071,106074,11.11111111111111,-0.43
106088,106091,11.11111111111111,-0.38
106099,106104,16.666666666666668,-0.36
106165,106168,11.11111111111111,-0.225
106280,106283,11.11111111111111,-0.355
106291,106294,11.11111111111111,-0.335
106303,106306,11.11111111111111,-0.305
106319,106323,13.888888888888888,-0.245
106344,106347,11.11111111111111,-0.12
106389,106392,11.11111111111111,-0.13
106393,106398,16.666666666666668,-0.105
106405,106408,11.11111111111111,-0.08
106456,106459,11.11111111111111,-0.135
106501,106504,11.11111111111111,-0.185
106514,106517,11.11111111111111,-0.185
106551,106556,16.666666666666668,-0.13
106567,106570,11.11111111111111,-0.115
106755,106758,11.11111111111111,-0.105
106774,106777,11.11111111111111,-0.095
106783,106786,11.11111111111111,-0.07
106795,106798,11.11111111111111,-0.055
106829,106832,11.11111111111111,-0.025
106840,106843,11.11111111111111,-0.01
106858,106861,11.11111111111111,-0.035
106868,106871,11.11111111111111,-0.02
106897,106900,11.11111111111111,0.13
106975,106978,11.11111111111111,-0.285
107005,107008,11.11111111111111,-0.215
107039,107042,11.11111111111111,-0.14
107064,107067,11.11111111111111,-0.185
107083,107086,11.11111111111111,-0.17
107116,107119,11.11111111111111,-0.005
107121,107125,13.888888888888888,-0.015
107263,107266,11.11111111111111,-0.265
107302,107305,11.11111111111111,-0.265
107347,107350,11.11111111111111,-0.095
107351,107354,11.11111111111111,-0.095
107427,107432,16.666666666666668,-0.435
107523,107526,11.11111111111111,-0.275
107637,107640,11.11111111111111,-0.35
107690,107694,13.888888888888888,-0.365
107750,107753,11.11111111111111,-0.25
107828,107831,11.11111111111111,-0.32
107876,107879,11.11111111111111,-0.42
107898,107901,11.11111111111111,-0.445
108007,108010,11.11111111111111,-0.28
108119,108122,11.11111111111111,-0.445
108153,108156,11.11111111111111,-0.41
108298,108302,13.888888888888888,-0.315
108363,108366,11.11111111111111,-0.345
108468,108474,19.444444444444446,-0.095
108480,108483,11.11111111111111,-0.09
108539,108542,11.11111111111111,-0.145
108578,108581,11.11111111111111,-0.18
108618,108621,11.11111111111111,-0.13
108655,108659,13.888888888888888,-0.035
108702,108706,13.888888888888888,-0.02
108711,108715,13.888888888888888,-0.025
108817,108820,11.11111111111111,-0.205
108830,108833,11.11111111111111,-0.19
108841,108844,11.11111111111111,-0.185
108854,108857,11.11111111111111,-0.145
108905,108908,11.11111111111111,-0.11
108918,108921,11.11111111111111,-0.11
108945,108948,11.11111111111111,-0.095
109120,109123,11.11111111111111,-0.18
109400,109403,11.11111111111111,-0.185
109418,109421,11.11111111111111,-0.17
109541,109544,11.11111111111111,-0.27
109555,109558,11.11111111111111,-0.25
109668,109671,11.11111111111111,0.09
109739,109742,11.11111111111111,-0.255
109759,109762,11.11111111111111,-0.265
109817,109820,11.11111111111111,-0.07
109830,109833,11.11111111111111,-0.085
109839,109842,11.11111111111111,-0.105
109865,109868,11.11111111111111,-0.07
109970,109973,11.11111111111111,-0.25
110010,110013,11.11111111111111,-0.245
110151,110154,11.11111111111111,-0.195
110199,110202,11.11111111111111,-0.3
110228,110231,11.11111111111111,-0.3
110240,110244,13.888888888888888,-0.295
110285,110288,11.11111111111111,-0.145
110297,110300,11.11111111111111,-0.175
110310,110313,11.11111111111111,-0.18
110325,110328,11.11111111111111,-0.185
110453,110458,16.666666666666668,-0.33
110459,110462,11.11111111111111,-0.335
110491,110495,13.888888888888888,-0.275
110514,110517,11.11111111111111,-0.21
110543,110546,11.11111111111111,-0.185
110562,110565,11.11111111111111,-0.195
110573,110576,11.11111111111111,-0.19
110762,110765,11.11111111111111,-0.185
110769,110772,11.11111111111111,-0.195
110811,110814,11.11111111111111,-0.15
110840,110843,11.11111111111111,-0.01
110931,110934,11.11111111111111,-0.32
110960,110963,11.11111111111111,-0.285
111029,111032,11.11111111111111,-0.15
111066,111069,11.11111111111111,-0.01
111086,111092,19.444444444444446,-0.24
111136,111140,13.888888888888888,-0.36
111151,111154,11.11111111111111,-0.35
111165,111169,13.888888888888888,-0.345
111222,111225,11.11111111111111,-0.22
111242,111246,13.888888888888888,-0.215
111416,111419,11.11111111111111,-0.35
111429,111432,11.11111111111111,-0.31
111437,111440,11.11111111111111,-0.29
111449,111452,11.11111111111111,-0.24
111489,111492,11.11111111111111,-0.265
111496,111499,11.11111111111111,-0.225
111565,111568,11.11111111111111,-0.315
111632,111635,11.11111111111111,-0.425
111709,111714,16.666666666666668,-0.26
111719,111722,11.11111111111111,-0.27
111942,111946,13.888888888888888,-0.24
111968,111971,11.11111111111111,-0.22
112019,112022,11.11111111111111,-0.23
112030,112033,11.11111111111111,-0.28
112088,112091,11.11111111111111,-0.35
112100,112104,13.888888888888888,-0.33
112120,112123,11.11111111111111,-0.24
112161,112164,11.11111111111111,-0.19
112172,112175,11.11111111111111,-0.18
112179,112182,11.11111111111111,-0.17
112199,112202,11.11111111111111,-0.15
112268,112271,11.11111111111111,-0.22
112297,112300,11.11111111111111,-0.195
112323,112326,11.11111111111111,-0.325
112336,112340,13.888888888888888,-0.32
112428,112431,11.11111111111111,-0.205
112540,112543,11.11111111111111,-0.365
112552,112555,11.11111111111111,-0.375
112600,112604,13.888888888888888,-0.3
112616,112619,11.11111111111111,-0.29
112686,112689,11.11111111111111,-0.25
112731,112735,13.888888888888888,-0.305
112809,112813,13.888888888888888,-0.42
112837,112840,11.11111111111111,-0.345
112864,112867,11.11111111111111,-0.255
112870,112873,11.11111111111111,-0.27
112906,112909,11.11111111111111,-0.285
113035,113038,11.11111111111111,-0.385
113046,113049,11.11111111111111,-0.375
113157,113160,11.11111111111111,-0.165
113197,113200,11.11111111111111,-0.03
113208,113211,11.11111111111111,-0.195
113287,113290,11.11111111111111,-0.29
113312,113315,11.11111111111111,-0.235
113348,113352,13.888888888888888,-0.155
113362,113365,11.11111111111111,-0.18
113409,113412,11.11111111111111,-0.155
113427,113430,11.11111111111111,-0.005
113498,113501,11.11111111111111,-0.355
113524,113527,11.11111111111111,-0.36
113553,113556,11.11111111111111,-0.305
113557,113560,11.11111111111111,-0.295
113594,113597,11.11111111111111,-0.265
113663,113666,11.11111111111111,-0.1
113689,113692,11.11111111111111,-0.315
113734,113737,11.11111111111111,-0.44
113743,113746,11.11111111111111,-0.45
113801,113804,11.11111111111111,-0.345
113814,113817,11.11111111111111,-0.31
113823,113826,11.11111111111111,-0.28
113861,113864,11.11111111111111,-0.3
113981,113984,11.11111111111111,-0.445
114011,114014,11.11111111111111,-0.425
114108,114111,11.11111111111111,-0.24
114112,114115,11.11111111111111,-0.225
114117,114120,11.11111111111111,-0.265
114129,114132,11.11111111111111,-0.215
114171,114176,16.666666666666668,-0.295
114213,114216,11.11111111111111,-0.385
114234,114237,11.11111111111111,-0.35
114256,114259,11.11111111111111,-0.305
114329,114332,11.11111111111111,-0.15
114346,114349,11.11111111111111,-0.155
114396,114399,11.11111111111111,-0.195
114400,114403,11.11111111111111,-0.2
114471,114474,11.11111111111111,-0.28
114498,114501,11.11111111111111,-0.21
114529,114533,13.888888888888888,-0.16
114593,114596,11.11111111111111,-0.135
114681,114684,11.11111111111111,-0.365
114767,114770,11.11111111111111,-0.245
114777,114781,13.888888888888888,-0.265
114793,114796,11.11111111111111,-0.265
114802,114808,19.444444444444446,-0.245
114816,114819,11.11111111111111,-0.235
114864,114867,11.11111111111111,-0.27
114966,114969,11.11111111111111,-0.345
114975,114978,11.11111111111111,-0.315
114996,114999,11.11111111111111,-0.265
115026,115030,13.888888888888888,-0.28
115042,115046,13.888888888888888,-0.275
115172,115175,11.11111111111111,-0.47
115192,115195,11.11111111111111,-0.395
115328,115331,11.11111111111111,-0.08
115359,115362,11.11111111111111,-0.31
115422,115425,11.11111111111111,-0.335
115429,115432,11.11111111111111,-0.325
115452,115456,13.888888888888888,-0.255
115482,115485,11.11111111111111,-0.175
115536,115539,11.11111111111111,-0.135
115541,115544,11.11111111111111,-0.085
115562,115565,11.11111111111111,0.025
115582,115585,11.11111111111111,-0.215
115631,115636,16.666666666666668,-0.29
115651,115655,13.888888888888888,-0.25
115661,115664,11.11111111111111,-0.215
115699,115702,11.11111111111111,-0.12
115717,115720,11.11111111111111,-0.105
115746,115749,11.11111111111111,-0.095
115761,115764,11.11111111111111,-0.1
115877,115880,11.11111111111111,-0.27
115886,115889,11.11111111111111,-0.255
115923,115926,11.11111111111111,-0.17
115946,115949,11.11111111111111,-0.13
115985,115988,11.11111111111111,-0.13
115990,115993,11.11111111111111,-0.13
116100,116103,11.11111111111111,-0.31
116161,116164,11.11111111111111,-0.21
116168,116171,11.11111111111111,-0.21
116220,116223,11.11111111111111,-0.175
116228,116231,11.11111111111111,-0.15
116357,116360,11.11111111111111,-0.3
116393,116396,11.11111111111111,-0.205
116485,116488,11.11111111111111,-0.145
116585,116588,11.11111111111111,-0.26
116591,116594,11.11111111111111,-0.29
116607,116610,11.11111111111111,-0.235
116628,116631,11.11111111111111,-0.18
116704,116707,11.11111111111111,-0.07
116764,116767,11.11111111111111,-0.135
116770,116773,11.11111111111111,-0.15
116807,116810,11.11111111111111,-0.235
116820,116823,11.11111111111111,-0.245
116839,116842,11.11111111111111,-0.2
116843,116846,11.11111111111111,-0.215
116854,116857,11.11111111111111,-0.175
116876,116879,11.11111111111111,-0.16
116884,116888,13.888888888888888,-0.08
116916,116919,11.11111111111111,-0.135
116978,116981,11.11111111111111,0.06
116999,117002,11.11111111111111,-0.2
117048,117051,11.11111111111111,-0.335
117092,117095,11.11111111111111,-0.26
117148,117152,13.888888888888888,-0.195
117287,117290,11.11111111111111,-0.415
117300,117303,11.11111111111111,-0.4
117320,117323,11.11111111111111,-0.355
117352,117356,13.888888888888888,-0.245
117362,117365,11.11111111111111,-0.23
117389,117392,11.11111111111111,-0.26
117416,117419,11.11111111111111,-0.255
117625,117628,11.11111111111111,-0.29
117635,117638,11.11111111111111,-0.285
117653,117656,11.11111111111111,-0.25
117657,117660,11.11111111111111,-0.26
117676,117679,11.11111111111111,-0.245
117713,117717,13.888888888888888,-0.31
117729,117733,13.888888888888888,-0.35
117767,117770,11.11111111111111,-0.44
117826,117829,11.11111111111111,-0.32
117854,117857,11.11111111111111,-0.245
117875,117878,11.11111111111111,-0.245
117899,117902,11.11111111111111,-0.185
117915,117918,11.11111111111111,-0.16
117919,117922,11.11111111111111,-0.16
117931,117934,11.11111111111111,-0.015
117992,117995,11.11111111111111,-0.245
118001,118005,13.888888888888888,-0.34
118008,118011,11.11111111111111,-0.365
118014,118017,11.11111111111111,-0.335
118033,118036,11.11111111111111,-0.335
118037,118041,13.888888888888888,-0.32
118055,118059,13.888888888888888,-0.28
118124,118128,13.888888888888888,-0.2
118132,118136,13.888888888888888,-0.17
118145,118148,11.11111111111111,-0.165
118161,118164,11.11111111111111,-0.105
118241,118244,11.11111111111111,-0.365
118280,118283,11.11111111111111,-0.3
118329,118332,11.11111111111111,-0.23
118370,118374,13.888888888888888,-0.21
118554,118557,11.11111111111111,-0.275
118602,118605,11.11111111111111,-0.275
118629,118632,11.11111111111111,-0.29
118718,118721,11.11111111111111,-0.435
118726,118730,13.888888888888888,-0.46
118755,118758,11.11111111111111,-0.43
118777,118780,11.11111111111111,-0.35
118781,118784,11.11111111111111,-0.35
118796,118800,13.888888888888888,-0.3
118829,118833,13.888888888888888,-0.29
118862,118865,11.11111111111111,-0.305
118913,118916,11.11111111111111,-0.34
118964,118967,11.11111111111111,-0.455
119013,119016,11.11111111111111,-0.345
119022,119025,11.11111111111111,-0.31
119054,119057,11.11111111111111,-0.26
119074,119077,11.11111111111111,-0.245
119086,119089,11.11111111111111,-0.245
119150,119153,11.11111111111111,-0.285
119193,119197,13.888888888888888,-0.34
119263,119266,11.11111111111111,-0.205
119322,119325,11.11111111111111,-0.135
119348,119351,11.11111111111111,-0.065
119384,119387,11.11111111111111,-0.195
119424,119427,11.11111111111111,-0.305
119430,119433,11.11111111111111,-0.25
119535,119538,11.11111111111111,-0.135
119578,119581,11.11111111111111,-0.095
119620,119623,11.11111111111111,-0.21
119734,119737,11.11111111111111,-0.215
119751,119754,11.11111111111111,-0.245
119788,119791,11.11111111111111,-0.205
119918,119922,13.888888888888888,-0.445
119950,119953,11.11111111111111,-0.385
120191,120194,11.11111111111111,-0.04
120248,120251,11.11111111111111,0.11
120262,120265,11.11111111111111,0.06
120272,120275,11.11111111111111,0.115
120370,120373,11.11111111111111,-0.385
120376,120379,11.11111111111111,-0.33
120472,120475,11.11111111111111,-0.475
120482,120485,11.11111111111111,-0.51
120518,120521,11.11111111111111,-0.505
120563,120566,11.11111111111111,-0.775
120631,120634,11.11111111111111,-0.875
120717,120721,13.888888888888888,-0.755
120741,120744,11.11111111111111,-0.75
120755,120758,11.11111111111111,-0.695
120784,120787,11.11111111111111,-0.75
120832,120835,11.11111111111111,-0.835
120855,120858,11.11111111111111,-0.87
120890,120893,11.11111111111111,-0.815
120915,120920,16.666666666666668,-0.63
120925,120928,11.11111111111111,-0.665
120950,120953,11.11111111111111,-0.685
120973,120976,11.11111111111111,-0.68
120991,120994,11.11111111111111,-0.67
121034,121037,11.11111111111111,-0.705
121183,121186,11.11111111111111,-0.5
121199,121202,11.11111111111111,-0.51
121235,121238,11.11111111111111,-0.5
121440,121443,11.11111111111111,-0.31
121445,121448,11.11111111111111,-0.285
121457,121460,11.11111111111111,-0.26
121497,121500,11.11111111111111,-0.09
121501,121504,11.11111111111111,-0.13
121520,121523,11.11111111111111,-0.3
121569,121572,11.11111111111111,-0.34
121591,121594,11.11111111111111,-0.305
121652,121655,11.11111111111111,-0.14
121664,121667,11.11111111111111,-0.155
121675,121678,11.11111111111111,-0.135
121686,121689,11.11111111111111,-0.115
121712,121715,11.11111111111111,-0.115
121752,121755,11.11111111111111,-0.19
121812,121815,11.11111111111111,-0.28
121860,121863,11.11111111111111,-0.195
121968,121971,11.11111111111111,0.1
122085,122088,11.11111111111111,-0.18
122136,122139,11.11111111111111,-0.1
122146,122149,11.11111111111111,-0.085
122323,122326,11.11111111111111,-0.165
122346,122349,11.11111111111111,-0.13
122364,122367,11.11111111111111,-0.055
122446,122449,11.11111111111111,0.11
122477,122480,11.11111111111111,-0.14
122559,122563,13.888888888888888,-0.165
122609,122612,11.11111111111111,-0.02
122624,122627,11.11111111111111,-0.04
122665,122668,11.11111111111111,-0.045
122774,122777,11.11111111111111,-0.195
122788,122791,11.11111111111111,-0.16
122802,122805,11.11111111111111,-0.14
122833,122836,11.11111111111111,-0.025
122838,122841,11.11111111111111,0.0
122846,122851,16.666666666666668,-0.03
122861,122864,11.11111111111111,-0.03
122870,122873,11.11111111111111,-0.04
122880,122883,11.11111111111111,-0.03
122890,122894,13.888888888888888,-0.035
122902,122905,11.11111111111111,-0.04
123036,123039,11.11111111111111,-0.16
123095,123098,11.11111111111111,-0.045
123120,123125,16.666666666666668,-0.04
123142,123145,11.11111111111111,0.03
123186,123189,11.11111111111111,-0.125
123264,123267,11.11111111111111,-0.125
123273,123276,11.11111111111111,-0.085
123297,123300,11.11111111111111,-0.02
123318,123322,13.888888888888888,0.0
123421,123424,11.11111111111111,-0.13
123425,123428,11.11111111111111,-0.135
123463,123466,11.11111111111111,-0.175
123467,123470,11.11111111111111,-0.19
123481,123484,11.11111111111111,-0.185
123565,123568,11.11111111111111,0.0
123589,123592,11.11111111111111,0.01
123638,123641,11.11111111111111,0.165
123663,123667,13.888888888888888,-0.065
123726,123730,13.888888888888888,-0.115
123753,123756,11.11111111111111,-0.06
123778,123781,11.11111111111111,0.02
123843,123846,11.11111111111111,0.055
124047,124050,11.11111111111111,-0.065
124057,124061,13.888888888888888,-0.045
124086,124089,11.11111111111111,0.0
124184,124187,11.11111111111111,-0.27
124195,124199,13.888888888888888,-0.265
124231,124234,11.11111111111111,-0.21
124235,124238,11.11111111111111,-0.215
124250,124253,11.11111111111111,-0.15
124280,124283,11.11111111111111,-0.165
124313,124316,11.11111111111111,-0.155
124407,124410,11.11111111111111,-0.35
124439,124443,13.888888888888888,-0.335
124473,124476,11.11111111111111,-0.265
124489,124492,11.11111111111111,-0.18
124511,124514,11.11111111111111,-0.22
124651,124654,11.11111111111111,-0.355
124656,124659,11.11111111111111,-0.38
124665,124668,11.11111111111111,-0.34
124695,124699,13.888888888888888,-0.315
124703,124706,11.11111111111111,-0.305
124787,124790,11.11111111111111,-0.205
124828,124831,11.11111111111111,-0.195
124928,124931,11.11111111111111,-0.295
124942,124945,11.11111111111111,-0.285
124966,124970,13.888888888888888,-0.175
124984,124987,11.11111111111111,-0.195
124988,124991,11.11111111111111,-0.195
124996,124999,11.11111111111111,-0.2
125010,125013,11.11111111111111,-0.18
125021,125024,11.11111111111111,-0.19
125041,125044,11.11111111111111,-0.195
125134,125137,11.11111111111111,-0.33
125157,125162,16.666666666666668,-0.305
125210,125213,11.11111111111111,-0.145
125231,125234,11.11111111111111,-0.165
125242,125245,11.11111111111111,-0.16
125270,125273,11.11111111111111,-0.17
125395,125398,11.11111111111111,-0.295
125418,125421,11.11111111111111,-0.255
125422,125425,11.11111111111111,-0.235
125486,125489,11.11111111111111,-0.17
125509,125512,11.11111111111111,-0.165
125513,125516,11.11111111111111,-0.16
125617,125621,13.888888888888888,-0.36
125642,125645,11.11111111111111,-0.305
125684,125688,13.888888888888888,-0.155
125692,125695,11.11111111111111,-0.16
125727,125730,11.11111111111111,-0.2
125749,125753,13.888888888888888,-0.185
125757,125760,11.11111111111111,-0.17
125798,125801,11.11111111111111,-0.275
125895,125898,11.11111111111111,-0.315
125959,125962,11.11111111111111,-0.17
125995,125998,11.11111111111111,-0.2
126006,126009,11.11111111111111,-0.185
126091,126094,11.11111111111111,-0.34
126109,126112,11.11111111111111,-0.345
126128,126131,11.11111111111111,-0.29
126192,126195,11.11111111111111,-0.14
126211,126215,13.888888888888888,-0.115
126298,126301,11.11111111111111,-0.145
126341,126344,11.11111111111111,-0.22
126373,126378,16.666666666666668,-0.175
126400,126403,11.11111111111111,-0.15
126451,126454,11.11111111111111,0.015
126475,126478,11.11111111111111,-0.005
126490,126493,11.11111111111111,0.085
126500,126503,11.11111111111111,0.175
126525,126529,13.888888888888888,-0.1
126533,126536,11.11111111111111,-0.07
126596,126599,11.11111111111111,-0.165
126622,126625,11.11111111111111,-0.135
126682,126685,11.11111111111111,-0.08
126710,126713,11.11111111111111,-0.09
126714,126720,19.444444444444446,-0.085
126731,126734,11.11111111111111,-0.005
126770,126773,11.11111111111111,-0.24
126837,126840,11.11111111111111,-0.32
126855,126858,11.11111111111111,-0.32
126859,126863,13.888888888888888,-0.31
126864,126867,11.11111111111111,-0.305
126872,126876,13.888888888888888,-0.31
126944,126949,16.666666666666668,-0.215
126958,126961,11.11111111111111,-0.225
127014,127017,11.11111111111111,-0.355
127065,127068,11.11111111111111,-0.43
127093,127097,13.888888888888888,-0.42
127127,127131,13.888888888888888,-0.32
127155,127158,11.11111111111111,-0.3
127312,127315,11.11111111111111,-0.485
127318,127322,13.888888888888888,-0.46
127385,127390,16.666666666666668,-0.26
127426,127429,11.11111111111111,-0.31
127440,127443,11.11111111111111,-0.31
127572,127575,11.11111111111111,-0.43
127584,127587,11.11111111111111,-0.4
127637,127640,11.11111111111111,-0.265
127658,127661,11.11111111111111,-0.295
127847,127850,11.11111111111111,-0.35
127880,127883,11.11111111111111,-0.24
127884,127887,11.11111111111111,-0.26
127985,127988,11.11111111111111,-0.35
128067,128070,11.11111111111111,-0.36
128072,128076,13.888888888888888,-0.34
128078,128082,13.888888888888888,-0.35
128100,128103,11.11111111111111,-0.23
128272,128276,13.888888888888888,-0.385
128301,128304,11.11111111111111,-0.31
128331,128334,11.11111111111111,-0.295
128336,128339,11.11111111111111,-0.27
128348,128351,11.11111111111111,-0.165
128371,128375,13.888888888888888,-0.185
128379,128382,11.11111111111111,-0.21
128425,128428,11.11111111111111,-0.19
128542,128545,11.11111111111111,-0.265
128612,128615,11.11111111111111,-0.145
128626,128629,11.11111111111111,-0.125
128643,128647,13.888888888888888,-0.125
128774,128777,11.11111111111111,-0.28
128782,128785,11.11111111111111,-0.24
128817,128820,11.11111111111111,-0.185
128847,128850,11.11111111111111,-0.135
129045,129048,11.11111111111111,-0.155
129058,129061,11.11111111111111,-0.14
129075,129078,11.11111111111111,-0.08
129106,129109,11.11111111111111,-0.085
129123,129126,11.11111111111111,-0.11
129235,129239,13.888888888888888,-0.24
129287,129290,11.11111111111111,-0.125
129309,129313,13.888888888888888,0.005
129336,129339,11.11111111111111,-0.035
129363,129366,11.11111111111111,-0.055
129474,129477,11.11111111111111,-0.18
129537,129540,11.11111111111111,-0.055
129552,129555,11.11111111111111,0.03
129559,129562,11.11111111111111,0.015
129565,129568,11.11111111111111,-0.02
129585,129588,11.11111111111111,0.015
129613,129616,11.11111111111111,-0.015
129622,129625,11.11111111111111,-0.005
129675,129678,11.11111111111111,-0.13
129728,129731,11.11111111111111,-0.145
129738,129741,11.11111111111111,-0.12
129801,129804,11.11111111111111,0.08
129856,129859,11.11111111111111,0.01
129975,129978,11.11111111111111,-0.21
129993,129996,11.11111111111111,-0.15
130048,130051,11.11111111111111,-0.095
130060,130066,19.444444444444446,-0.105
130072,130075,11.11111111111111,-0.11
130095,130099,13.888888888888888,-0.14
130102,130105,11.11111111111111,-0.11
130106,130109,11.11111111111111,-0.13
130152,130156,13.888888888888888,-0.205
130199,130202,11.11111111111111,-0.26
130213,130216,11.11111111111111,-0.25
130233,130236,11.11111111111111,-0.18
130300,130303,11.11111111111111,-0.11
130329,130334,16.666666666666668,-0.085
130335,130338,11.11111111111111,-0.095
130391,130395,13.888888888888888,-0.175
130457,130460,11.11111111111111,-0.23
130489,130492,11.11111111111111,-0.16
130571,130574,11.11111111111111,-0.1
130691,130695,13.888888888888888,-0.265
130737,130740,11.11111111111111,-0.18
130780,130784,13.888888888888888,-0.145
130798,130801,11.11111111111111,-0.14
130834,130837,11.11111111111111,-0.125
130882,130885,11.11111111111111,-0.215
131036,131039,11.11111111111111,-0.19
131074,131077,11.11111111111111,-0.185
131089,131093,13.888888888888888,-0.145
131129,131132,11.11111111111111,-0.27
131180,131184,13.888888888888888,-0.34
131248,131251,11.11111111111111,-0.135
131300,131306,19.444444444444446,-0.13
131357,131360,11.11111111111111,-0.175
131408,131411,11.11111111111111,-0.26
131418,131421,11.11111111111111,-0.26
131473,131476,11.11111111111111,-0.11
131489,131492,11.11111111111111,-0.04
131542,131545,11.11111111111111,-0.035
131568,131571,11.11111111111111,-0.02
131662,131665,11.11111111111111,-0.155
131713,131717,13.888888888888888,-0.055
131725,131728,11.11111111111111,-0.035
131732,131735,11.11111111111111,0.035
131737,131740,11.11111111111111,0.04
131757,131760,11.11111111111111,0.025
131809,131812,11.11111111111111,0.025
131842,131846,13.888888888888888,-0.04
131907,131911,13.888888888888888,-0.17
131928,131931,11.11111111111111,-0.135
131987,131990,11.11111111111111,0.04
131999,132002,11.11111111111111,0.01
132006,132010,13.888888888888888,-0.01
132059,132062,11.11111111111111,0.02
132090,132093,11.11111111111111,-0.055
132143,132147,13.888888888888888,-0.175
132166,132169,11.11111111111111,-0.135
132201,132204,11.11111111111111,-0.04
132229,132232,11.11111111111111,0.055
132234,132237,11.11111111111111,0.035
132243,132246,11.11111111111111,0.0
132322,132325,11.11111111111111,0.2
132349,132352,11.11111111111111,-0.075
132424,132428,13.888888888888888,-0.15
132448,132454,19.444444444444446,-0.08
132468,132471,11.11111111111111,-0.01
132536,132539,11.11111111111111,-0.05
132540,132544,13.888888888888888,-0.06
132591,132594,11.11111111111111,-0.2
132632,132635,11.11111111111111,-0.29
132667,132670,11.11111111111111,-0.28
132678,132681,11.11111111111111,-0.24
132691,132694,11.11111111111111,-0.225
132717,132720,11.11111111111111,-0.17
132734,132737,11.11111111111111,-0.2
132739,132742,11.11111111111111,-0.185
132748,132751,11.11111111111111,-0.195
132753,132756,11.11111111111111,-0.19
132765,132768,11.11111111111111,-0.17
132798,132801,11.11111111111111,-0.035
132934,132937,11.11111111111111,-0.27
132976,132979,11.11111111111111,-0.26
133019,133022,11.11111111111111,-0.25
133127,133130,11.11111111111111,-0.435
133155,133158,11.11111111111111,-0.405
133177,133180,11.11111111111111,-0.355
133203,133206,11.11111111111111,-0.27
133225,133228,11.11111111111111,-0.3
133232,133235,11.11111111111111,-0.315
133236,133240,13.888888888888888,-0.3
133251,133254,11.11111111111111,-0.33
133258,133262,13.888888888888888,-0.3
133268,133271,11.11111111111111,-0.3
133360,133363,11.11111111111111,-0.48
133380,133383,11.11111111111111,-0.465
133389,133392,11.11111111111111,-0.445
133403,133407,13.888888888888888,-0.41
133450,133453,11.11111111111111,-0.3
133484,133490,19.444444444444446,-0.32
133560,133563,11.11111111111111,-0.43
133613,133616,11.11111111111111,-0.52
133624,133628,13.888888888888888,-0.505
133634,133637,11.11111111111111,-0.49
133666,133669,11.11111111111111,-0.395
133724,133727,11.11111111111111,-0.32
133754,133757,11.11111111111111,-0.335
133868,133871,11.11111111111111,-0.475
133910,133913,11.11111111111111,-0.385
133952,133955,11.11111111111111,-0.355
134005,134008,11.11111111111111,-0.17
134028,134031,11.11111111111111,-0.42
134132,134135,11.11111111111111,-0.455
134143,134147,13.888888888888888,-0.44
134189,134192,11.11111111111111,-0.38
134305,134308,11.11111111111111,-0.4
134417,134420,11.11111111111111,-0.36
134618,134622,13.888888888888888,-0.43
134665,134668,11.11111111111111,-0.335
134698,134701,11.11111111111111,-0.315
134764,134767,11.11111111111111,-0.375
134808,134812,13.888888888888888,-0.425
134814,134817,11.11111111111111,-0.435
134819,134823,13.888888888888888,-0.42
134835,134838,11.11111111111111,-0.405
134843,134846,11.11111111111111,-0.345
134890,134894,13.888888888888888,-0.17
135059,135062,11.11111111111111,-0.28
135076,135079,11.11111111111111,-0.275
135154,135158,13.888888888888888,-0.07
135187,135190,11.11111111111111,-0.07
135277,135280,11.11111111111111,-0.145
135291,135294,11.11111111111111,-0.155
135325,135328,11.11111111111111,-0.05
135361,135364,11.11111111111111,0.105
135371,135374,11.11111111111111,0.07
135382,135386,13.888888888888888,0.095
135419,135422,11.11111111111111,0.115
135432,135435,11.11111111111111,0.14
135463,135466,11.11111111111111,0.095
135562,135565,11.11111111111111,0.045
135583,135586,11.11111111111111,0.05
135677,135680,11.11111111111111,0.16
135718,135721,11.11111111111111,0.055
135760,135764,13.888888888888888,-0.04
135787,135790,11.11111111111111,-0.015
135809,135812,11.11111111111111,0.04
135847,135850,11.11111111111111,0.155
135851,135854,11.11111111111111,0.155
135858,135861,11.11111111111111,0.13
135883,135886,11.11111111111111,0.135
136021,136024,11.11111111111111,0.035
136046,136049,11.11111111111111,0.085
136060,136063,11.11111111111111,0.125
136134,136137,11.11111111111111,0.175
136181,136184,11.11111111111111,0.115
136233,136236,11.11111111111111,0.035
136284,136287,11.11111111111111,0.16
136321,136324,11.11111111111111,0.205
136338,136341,11.11111111111111,0.205
136344,136347,11.11111111111111,0.215
136483,136486,11.11111111111111,0.08
136524,136527,11.11111111111111,0.19
136528,136532,13.888888888888888,0.17
136573,136577,13.888888888888888,0.21
136598,136601,11.11111111111111,0.2
